1494232516.00
64.000000
-0.00
-0.00
-0.00
-0.00
-0.00
-0.00
-0.00
-0.00
-0.00
-0.00
0.00
0.01
0.01
-0.00
-0.03
-0.05
-0.05
0.00
0.13
0.36
0.66
1.01
1.37
1.72
2.06
2.40
2.79
3.24
3.80
4.42
5.06
5.66
6.20
6.68
7.15
7.68
8.31
9.14
10.09
11.04
11.88
12.56
13.14
13.76
14.65
15.96
17.91
20.32
22.90
25.38
27.58
29.57
31.68
34.32
37.81
42.54
48.15
54.10
59.83
64.97
69.58
74.14
79.34
85.71
93.76
103.00
112.62
121.73
129.77
136.75
143.30
150.75
157.77
166.64
177.95
191.79
206.97
220.57
228.25
225.36
208.53
176.87
132.76
80.05
23.07
-34.94
-92.44
-149.16
-205.23
-260.37
-313.74
-363.87
-409.83
-450.91
-486.50
-515.74
-537.23
-549.22
-549.96
-538.37
-514.21
-478.67
-433.88
-382.45
-327.02
-269.84
-212.63
-156.66
-102.95
-52.37
-5.90
35.58
71.43
101.35
125.50
144.38
158.69
169.15
176.37
180.75
182.57
182.07
179.51
175.23
169.65
163.18
156.15
148.81
141.30
133.69
126.02
118.33
110.69
103.16
95.80
88.68
81.83
75.25
68.95
62.95
57.25
51.86
46.78
42.03
37.59
33.45
29.61
26.07
22.81
19.83
17.11
14.67
12.48
10.54
8.83
7.35
6.07
4.97
4.05
3.27
2.62
2.09
1.65
1.30
1.01
0.79
0.61
0.47
0.37
0.28
0.22
0.18
0.14
0.12
0.10
0.10
0.10
0.10
0.11
0.13
0.16
0.19
0.22
0.25
0.30
0.34
0.38
0.42
0.47
0.52
0.57
0.62
0.67
0.73
0.79
0.86
0.93
1.02
1.11
1.21
1.32
1.45
1.59
1.75
1.93
2.13
2.35
2.60
2.87
3.16
3.48
3.84
4.24
4.68
5.16
5.67
6.18
6.70
7.21
7.74
8.31
8.96
9.71
10.54
11.44
12.36
13.30
14.23
15.18
16.20
17.32
18.54
19.82
21.07
22.10
22.79
22.97
22.58
21.59
20.04
17.95
15.31
12.07
8.13
3.53
-1.57
-6.86
-11.91
-16.28
-19.68
-22.08
-23.69
-24.90
-26.08
-27.39
-28.73
-29.72
-29.99
-29.29
-27.78
-25.97
-24.57
-24.14
-24.91
-26.57
-28.44
-29.78
-30.10
-29.40
-28.15
-27.05
-26.81
-28.02
-31.04
-35.81
-41.51
-46.36
-47.85
-43.56
-32.24
-14.79
5.71
24.98
39.26
46.67
47.80
45.06
41.25
38.34
36.88
36.22
35.37
33.62
30.73
26.86
22.21
17.09
11.99
7.58
4.65
3.90
5.49
8.79
12.56
15.24
15.56
12.89
8.17
2.82
-1.38
-2.87
-0.84
4.53
12.19
20.55
28.06
33.54
36.40
36.67
34.82
31.39
26.80
21.19
14.46
6.41
-2.93
-13.22
-23.44
-32.12
-37.67
-38.90
-35.54
-28.37
-19.04
-9.49
-1.43
4.20
7.29
8.37
8.24
7.64
7.00
6.40
5.71
4.77
3.51
2.09
0.84
0.04
-0.19
-0.00
0.20
-0.12
-1.48
-4.22
-8.41
-13.91
-20.35
-27.25
-34.17
-40.78
-46.97
-52.84
-58.70
-64.92
-71.82
-79.54
-87.88
-96.28
-103.76
-109.14
-111.23
-109.07
-102.18
-90.80
-75.92
-59.26
-42.99
-29.31
-19.98
-15.79
-16.52
-21.03
-27.68
-34.81
-41.03
-45.32
-47.02
-45.68
-41.01
-32.84
-21.03
-5.40
14.17
37.56
64.03
92.04
119.38
143.64
162.94
176.47
184.61
188.52
189.52
188.49
185.66
180.73
173.19
162.73
149.37
133.47
115.59
96.33
76.06
55.00
33.30
11.30
-10.23
-30.14
-47.15
-60.33
-69.47
-75.16
-78.49
-80.60
-82.28
-83.86
-85.34
-86.57
-87.37
-87.47
-86.40
-83.59
-78.58
-71.27
-62.19
-52.34
-42.92
-34.92
-28.86
-24.73
-22.14
-20.47
-19.11
-17.47
-15.07
-11.60
-7.05
-1.77
3.51
7.86
10.53
11.23
10.34
8.86
8.06
9.15
12.82
19.07
27.34
36.72
46.29
55.36
63.51
70.54
76.19
80.12
81.79
80.61
76.19
68.45
57.81
45.08
31.34
17.68
4.96
-6.24
-15.61
-22.88
-27.85
-30.31
-30.30
-28.20
-24.86
-21.41
-18.88
-17.89
-18.37
-19.59
-20.51
-20.08
-17.64
-13.04
-6.55
1.24
9.64
17.95
25.43
31.28
34.66
34.81
31.28
24.21
14.42
3.32
-7.41
-16.31
-22.44
-25.63
-26.32
-25.34
-23.67
-22.15
-21.43
-21.98
-24.08
-27.90
-33.39
-40.28
-48.05
-55.93
-63.12
-68.81
-72.36
-73.26
-71.15
-65.81
-57.25
-45.74
-31.87
-16.62
-1.22
12.97
24.65
32.84
37.03
37.35
34.51
29.76
24.62
20.52
18.50
18.94
21.48
25.10
28.49
30.33
29.79
26.67
21.37
14.55
6.62
-2.57
-13.74
-27.86
-45.55
-66.58
-89.68
-113.06
-135.06
-154.83
-172.54
-188.84
-204.21
-218.46
-230.61
-239.35
-243.43
-241.95
-234.26
-219.81
-198.21
-169.41
-133.99
-93.29
-48.85
-1.81
47.65
99.94
155.08
211.48
265.42
311.66
345.31
363.79
368.16
362.89
354.17
347.44
345.29
346.66
347.57
342.88
328.23
301.21
261.65
211.31
153.45
92.66
34.58
-14.68
-49.62
-66.72
-65.56
-48.93
-21.91
9.82
41.61
70.78
96.64
119.66
140.38
158.76
173.93
184.39
188.64
185.50
174.51
155.99
130.65
99.26
62.46
21.07
-23.22
-67.24
-106.33
-135.25
-149.70
-147.91
-131.28
-104.12
-72.16
-41.04
-14.93
3.88
14.70
17.93
14.52
5.79
-6.73
-21.44
-36.81
-51.63
-64.99
-76.13
-84.48
-89.55
-91.18
-89.66
-85.94
-81.34
-77.34
-75.00
-74.67
-75.92
-77.84
-79.49
-80.40
-80.90
-81.93
-84.74
-90.31
-98.97
-110.08
-122.19
-133.33
-141.51
-145.14
-143.31
-135.84
-123.29
-106.79
-87.95
-68.67
-50.89
-36.29
-25.99
-20.28
-18.72
-20.29
-23.70
-27.79
-31.72
-35.02
-37.56
-39.30
-40.25
-40.39
-39.63
-37.93
-35.26
-31.64
-27.12
-21.72
-15.45
-8.36
-0.50
7.83
16.14
23.71
29.72
33.57
34.97
34.14
31.65
28.21
24.58
21.36
19.00
17.85
18.03
19.45
21.74
24.23
26.22
27.08
26.58
24.91
22.56
20.16
18.27
17.13
16.67
16.48
15.94
14.44
11.57
7.25
1.74
-4.49
-10.99
-17.44
-23.65
-29.43
-34.46
-38.29
-40.48
-40.87
-39.69
-37.45
-34.77
-32.05
-29.29
-26.21
-22.43
-17.77
-12.40
-6.82
-1.75
2.05
3.97
3.67
1.18
-3.13
-8.63
-14.65
-20.78
-26.95
-33.42
-40.44
-47.95
-55.40
-61.82
-66.26
-68.18
-67.72
-65.59
-62.78
-60.09
-57.84
-55.84
-53.55
-50.30
-45.52
-38.79
-29.72
-18.06
-3.80
12.58
29.98
46.70
60.83
70.74
75.53
75.28
70.99
64.22
56.61
49.54
43.69
39.07
35.04
30.57
24.62
16.46
5.95
-6.23
-18.81
-30.10
-38.46
-42.65
-42.17
-37.32
-29.23
-19.51
-9.86
-1.66
4.34
8.04
9.82
10.24
9.92
9.38
9.10
9.53
10.94
13.27
15.97
17.97
17.95
14.64
7.36
-3.84
-18.02
-33.82
-49.72
-64.53
-77.52
-88.28
-96.55
-101.94
-104.04
-102.55
-97.55
-89.56
-79.40
-67.89
-55.53
-42.49
-28.79
-14.63
-0.49
13.06
25.75
37.97
50.62
64.62
80.24
96.67
112.01
123.99
130.77
131.69
127.49
119.99
111.51
104.13
99.28
97.45
98.23
100.33
101.80
100.41
94.16
82.00
64.35
43.31
22.31
5.14
-5.18
-7.52
-2.94
5.72
14.80
20.97
22.05
17.28
7.02
-7.53
-24.70
-42.47
-58.62
-71.06
-78.25
-79.81
-76.57
-70.45
-63.66
-58.00
-54.29
-52.40
-51.60
-51.08
-50.33
-49.24
-48.05
-47.12
-46.92
-47.85
-50.28
-54.32
-59.82
-66.25
-72.86
-78.82
-83.42
-86.10
-86.36
-83.72
-77.75
-68.29
-55.57
-40.38
-23.89
-7.50
7.42
19.80
28.85
34.09
35.37
32.90
27.22
19.20
9.90
0.39
-8.39
-15.67
-20.88
-23.59
-23.52
-20.63
-15.23
-8.02
0.04
7.97
15.13
21.30
26.62
31.25
35.04
37.53
38.13
36.51
32.81
27.68
22.07
16.94
13.00
10.67
10.08
11.14
13.49
16.52
19.49
21.66
22.50
21.91
20.08
17.55
14.94
12.83
11.69
11.84
13.40
16.25
20.11
24.47
28.77
32.39
34.79
35.58
34.60
32.01
28.23
23.87
19.60
15.91
13.01
10.83
9.06
7.40
5.69
3.99
2.51
1.45
0.83
0.48
0.09
-0.58
-1.57
-2.74
-3.88
-4.87
-5.86
-7.10
-8.86
-11.23
-14.02
-16.92
-19.65
-22.10
-24.25
-26.09
-27.41
-27.83
-26.88
-24.35
-20.39
-15.51
-10.41
-5.64
-1.47
2.10
5.22
8.07
10.92
14.15
18.34
24.11
31.84
41.30
51.66
61.72
70.41
77.20
82.31
86.46
90.46
94.72
99.04
102.66
104.56
103.87
100.05
93.05
83.26
71.33
57.97
43.68
28.67
12.77
-4.37
-22.89
-42.35
-61.50
-78.45
-91.24
-98.50
-100.17
-97.50
-92.61
-87.60
-83.55
-79.94
-74.76
-65.02
-47.48
-19.55
19.79
69.23
124.73
179.79
226.71
258.43
270.54
262.50
237.62
201.80
161.69
123.01
89.78
64.19
47.03
37.95
35.73
38.37
43.38
48.26
51.05
50.57
46.48
39.23
29.65
18.73
7.41
-3.65
-14.12
-23.88
-32.87
-40.84
-47.29
-51.71
-53.84
-53.93
-52.66
-50.84
-48.94
-46.85
-43.96
-39.57
-33.27
-25.25
-16.21
-7.08
1.32
8.48
14.14
18.28
20.93
22.12
21.93
20.56
18.27
15.41
12.19
8.66
4.74
0.39
-4.25
-8.74
-12.45
-14.80
-15.57
-15.07
-14.24
-14.31
-16.50
-21.46
-29.08
-38.47
-48.28
-57.14
-64.11
-68.94
-72.04
-74.36
-77.08
-81.32
-87.90
-97.18
-108.91
-122.29
-136.07
-148.79
-159.07
-165.83
-168.42
-166.61
-160.43
-150.17
-136.23
-119.14
-99.57
-78.41
-56.69
-35.58
-16.10
1.06
15.78
28.42
39.61
49.85
59.23
67.47
74.12
78.97
82.24
84.53
86.44
88.18
89.34
89.00
86.21
80.37
71.63
60.86
49.38
38.61
29.69
23.26
19.30
17.22
15.96
14.21
10.69
4.35
-5.30
-18.14
-33.37
-49.61
-65.09
-78.05
-87.13
-91.60
-91.62
-88.01
-81.99
-74.78
-67.36
-60.32
-53.91
-48.13
-42.85
-37.90
-33.17
-28.78
-25.11
-22.77
-22.43
-24.64
-29.50
-36.64
-45.33
-54.61
-63.63
-71.93
-79.51
-86.68
-93.56
-99.57
-103.03
-101.27
-91.34
-71.11
-40.25
-0.70
43.77
88.71
130.28
166.17
195.68
219.17
237.22
250.03
257.30
258.48
253.07
240.76
221.43
195.10
162.20
124.10
83.41
43.83
9.41
-16.66
-33.08
-40.69
-42.13
-40.65
-39.12
-39.38
-42.25
-47.77
-55.61
-65.32
-76.25
-87.65
-98.74
-108.94
-117.98
-125.88
-132.67
-138.02
-141.22
-141.23
-137.15
-128.64
-116.08
-100.52
-83.33
-65.91
-49.50
-35.05
-23.16
-14.00
-7.29
-2.28
1.82
5.64
9.34
12.63
15.09
16.47
16.94
17.09
17.71
19.49
22.73
27.30
32.62
37.78
41.78
43.72
42.99
39.45
33.30
25.03
15.30
4.80
-5.74
-15.52
-23.78
-29.92
-33.66
-35.16
-34.98
-33.94
-32.83
-32.25
-32.41
-33.20
-34.28
-35.26
-35.82
-35.76
-35.00
-33.52
-31.31
-28.36
-24.73
-20.58
-16.20
-12.05
-8.55
-6.12
-4.98
-5.15
-6.47
-8.68
-11.45
-14.41
-17.18
-19.38
-20.71
-21.10
-20.72
-19.89
-18.97
-18.11
-17.23
-16.02
-14.02
-10.86
-6.28
-0.20
7.20
15.49
23.98
31.85
38.31
42.88
45.45
46.33
46.04
45.07
43.81
42.60
41.73
41.48
42.04
43.26
44.68
45.57
45.23
43.31
39.89
35.46
30.65
26.00
21.81
18.21
15.23
12.93
11.38
10.56
10.28
10.13
9.55
8.01
5.14
0.89
-4.44
-10.23
-15.65
-19.90
-22.44
-23.15
-22.35
-20.63
-18.58
-16.65
-15.06
-13.92
-13.31
-13.36
-14.09
-15.20
-16.03
-15.65
-13.22
-8.35
-1.36
6.89
15.21
22.60
28.40
32.34
34.42
34.76
33.57
31.21
28.16
25.01
22.36
20.64
20.03
20.50
21.79
23.41
24.81
25.35
24.48
21.85
17.42
11.48
4.53
-2.79
-9.93
-16.54
-22.52
-28.00
-33.19
-38.31
-43.41
-48.35
-52.82
-56.42
-58.76
-59.57
-58.69
-56.11
-51.85
-45.93
-38.35
-29.12
-18.35
-6.30
6.54
19.51
31.87
42.96
52.22
59.28
63.90
65.98
65.55
62.77
57.85
51.07
42.76
33.43
23.77
14.72
7.16
1.69
-1.68
-3.61
-5.21
-7.61
-11.63
-17.50
-24.92
-33.16
-41.33
-48.52
-53.94
-57.08
-57.75
-56.09
-52.47
-47.34
-41.25
-34.77
-28.55
-23.19
-19.14
-16.34
-14.17
-11.56
-7.38
-0.94
7.89
18.67
30.74
43.50
56.41
68.78
79.56
87.42
91.00
89.53
83.15
73.02
60.98
48.93
38.43
30.35
24.90
21.79
20.41
19.96
19.60
18.62
16.52
13.14
8.64
3.44
-2.04
-7.57
-13.13
-18.95
-25.26
-32.08
-39.14
-46.02
-52.29
-57.75
-62.48
-66.81
-71.19
-76.07
-81.72
-88.07
-94.52
-99.81
-102.30
-100.41
-93.43
-81.94
-67.98
-54.56
-44.64
-40.10
-41.12
-46.13
-52.40
-56.86
-56.85
-50.49
-37.01
-16.71
9.04
37.94
67.04
93.29
114.25
128.58
136.36
138.94
138.42
137.08
136.79
138.75
143.37
150.24
158.19
165.40
169.65
168.87
161.58
147.27
126.56
100.97
72.58
43.49
15.60
-9.60
-30.86
-47.12
-57.45
-61.11
-57.85
-48.02
-32.56
-12.86
9.49
33.04
56.57
79.09
99.82
118.11
133.45
145.45
153.84
158.49
159.24
156.06
149.19
139.27
127.33
114.60
102.15
90.52
79.67
69.15
58.39
46.98
34.66
21.34
6.88
-8.74
-25.27
-41.93
-57.56
-70.95
-81.31
-88.64
-93.61
-97.25
-100.33
-103.13
-105.33
-106.45
-106.18
-104.60
-102.24
-99.75
-97.70
-96.33
-95.61
-95.32
-95.14
-94.83
-94.09
-92.59
-89.87
-85.40
-78.79
-69.99
-59.45
-47.97
-36.44
-25.55
-15.72
-7.23
-0.48
3.84
4.84
1.85
-5.30
-15.93
-28.64
-41.68
-53.34
-62.37
-68.14
-70.67
-70.53
-68.54
-65.54
-62.16
-58.65
-54.87
-50.48
-45.04
-38.19
-29.63
-19.14
-6.67
7.51
22.71
37.81
51.49
62.59
70.36
74.54
75.38
73.41
69.40
64.20
58.67
53.48
49.00
45.23
42.08
39.37
36.98
34.77
32.40
29.47
25.73
21.46
17.59
15.32
15.54
18.20
22.15
25.59
26.88
25.19
20.80
14.68
8.09
2.01
-3.03
-6.91
-9.99
-12.97
-16.72
-21.97
-28.95
-37.12
-45.28
-51.94
-55.89
-56.59
-54.37
-50.30
-45.86
-42.50
-41.28
-42.49
-45.53
-48.86
-50.44
-48.37
-41.60
-30.38
-16.18
-1.17
12.70
24.32
33.65
41.41
48.52
55.38
61.77
66.88
69.71
69.55
66.15
59.87
51.48
41.88
31.84
21.90
12.22
2.74
-6.70
-16.25
-25.88
-35.41
-44.52
-52.88
-60.20
-66.24
-70.80
-73.60
-74.33
-72.83
-69.12
-63.61
-56.94
-49.77
-42.56
-35.39
-28.15
-20.88
-13.96
-8.26
-4.70
-3.86
-5.55
-8.74
-11.76
-12.81
-10.41
-3.69
7.46
22.50
40.42
59.99
79.88
98.76
115.33
128.44
137.25
141.53
141.86
139.59
136.56
134.51
134.63
137.32
142.03
147.46
151.59
151.83
145.50
130.54
106.36
74.26
37.36
-0.36
-35.11
-64.15
-86.05
-100.44
-107.55
-108.04
-103.06
-94.54
-85.00
-77.13
-72.99
-73.44
-78.02
-85.35
-93.77
-101.81
-108.47
-113.23
-115.92
-116.54
-115.24
-112.16
-107.36
-100.88
-92.78
-83.40
-73.52
-64.28
-56.97
-52.55
-51.32
-52.74
-55.64
-58.62
-60.46
-60.50
-58.70
-55.53
-51.70
-47.87
-44.36
-41.12
-37.80
-33.93
-29.11
-23.26
-16.70
-10.02
-4.01
0.60
3.30
4.01
3.06
1.14
-0.91
-2.38
-2.86
-2.31
-0.95
0.93
3.06
5.27
7.43
9.38
10.93
11.96
12.39
12.26
11.68
10.70
9.33
7.55
5.40
3.04
0.78
-1.14
-2.60
-3.67
-4.61
-5.70
-7.13
-8.84
-10.62
-12.07
-12.87
-12.90
-12.26
-11.30
-10.30
-9.38
-8.27
-6.51
-3.59
0.66
6.01
11.81
17.32
22.02
25.71
28.58
30.99
33.12
34.92
36.12
36.42
35.68
34.04
31.83
29.47
27.30
25.58
24.42
23.93
24.19
25.25
27.05
29.41
32.01
34.49
36.45
37.58
37.68
36.76
35.03
32.86
30.56
28.27
25.95
23.41
20.57
17.46
14.22
10.97
7.73
4.42
1.05
-2.19
-4.82
-6.23
-5.96
-3.96
-0.73
2.88
5.99
8.04
8.99
9.21
9.32
9.75
10.66
11.87
13.11
14.21
15.25
16.48
18.13
20.26
22.71
25.19
27.39
29.11
30.26
30.83
30.81
30.21
28.95
27.02
24.39
21.09
17.26
13.06
8.66
4.13
-0.63
-5.85
-11.78
-18.53
-25.97
-33.71
-41.18
-47.83
-53.24
-57.20
-59.62
-60.48
-59.68
-57.03
-52.37
-45.59
-36.83
-26.36
-14.60
-2.03
10.89
23.63
35.58
45.99
54.09
59.34
61.56
61.07
58.50
54.61
50.05
45.27
40.50
35.88
31.44
27.20
23.16
19.31
15.64
12.15
8.90
5.95
3.43
1.46
0.20
-0.33
-0.30
-0.12
-0.34
-1.57
-4.10
-7.93
-12.70
-17.92
-23.12
-27.97
-32.29
-35.98
-38.95
-41.19
-42.73
-43.69
-44.21
-44.35
-44.05
-43.16
-41.51
-39.09
-36.10
-32.91
-29.93
-27.46
-25.54
-23.93
-22.31
-20.39
-18.05
-15.42
-12.65
-9.88
-7.13
-4.35
-1.58
0.97
2.86
3.57
2.79
0.56
-2.66
-6.17
-9.20
-11.17
-11.72
-10.81
-8.63
-5.67
-2.61
-0.19
0.98
0.59
-1.16
-3.68
-6.18
-7.97
-8.71
-8.50
-7.75
-6.92
-6.33
-6.03
-5.89
-5.80
-5.91
-6.61
-8.35
-11.39
-15.55
-20.23
-24.56
-27.61
-28.60
-26.89
-22.09
-14.22
-3.91
7.51
18.15
26.07
29.82
28.98
24.18
16.89
8.87
1.75
-3.24
-5.39
-4.39
-0.36
6.26
14.77
24.37
34.26
43.79
52.50
59.97
65.76
69.39
70.32
68.13
62.77
54.68
44.77
34.31
24.54
16.37
10.19
5.77
2.51
-0.33
-3.41
-7.16
-11.78
-17.24
-23.32
-29.67
-35.86
-41.42
-45.97
-49.28
-51.20
-51.66
-50.51
-47.53
-42.52
-35.49
-26.81
-17.21
-7.76
0.48
6.69
10.44
11.79
11.23
9.44
7.12
4.66
2.08
-0.90
-4.53
-8.76
-12.95
-16.11
-17.25
-16.02
-13.08
-10.08
-9.03
-11.45
-17.63
-26.52
-36.23
-45.00
-52.13
-58.43
-65.80
-76.39
-91.64
-111.71
-135.48
-160.76
-184.74
-204.16
-215.77
-217.15
-207.90
-190.60
-170.58
-154.18
-145.98
-146.51
-151.71
-154.78
-149.36
-132.33
-104.70
-70.22
-32.62
6.66
48.83
96.24
149.73
206.89
262.04
308.08
339.19
352.74
349.77
333.75
309.02
279.44
248.06
217.46
190.03
167.83
152.03
142.56
138.36
138.25
141.59
148.46
158.91
172.41
187.57
202.36
214.76
223.14
226.39
223.90
215.44
201.28
182.30
159.72
134.76
108.38
81.35
54.56
29.20
6.71
-11.60
-24.86
-32.63
-34.85
-31.60
-23.26
-11.10
2.44
13.97
20.14
18.60
8.83
-7.80
-28.67
-50.88
-71.95
-90.18
-104.74
-115.49
-122.83
-127.61
-130.80
-133.31
-135.63
-137.74
-139.16
-139.16
-137.16
-133.01
-127.02
-119.94
-112.66
-106.11
-101.07
-98.08
-97.37
-98.77
-101.72
-105.25
-108.19
-109.36
-107.89
-103.28
-95.36
-84.29
-70.47
-54.62
-37.82
-21.48
-7.18
3.72
10.42
12.98
12.24
9.46
5.95
2.57
-0.29
-2.70
-4.90
-6.99
-8.89
-10.32
-11.01
-10.81
-9.72
-7.85
-5.46
-2.96
-0.94
-0.25
-1.66
-5.59
-11.79
-19.22
-26.34
-31.62
-34.14
-33.88
-31.62
-28.46
-25.24
-22.16
-18.74
-14.07
-7.22
2.39
14.90
29.94
46.75
64.38
81.77
97.87
111.57
121.78
127.53
128.15
123.53
114.27
101.59
87.13
72.50
58.95
47.24
37.60
29.90
23.79
18.75
14.14
9.27
3.61
-3.14
-10.91
-19.43
-28.41
-37.71
-47.30
-57.10
-66.88
-76.16
-84.37
-91.01
-95.70
-98.18
-98.26
-95.78
-90.75
-83.48
-74.61
-65.00
-55.43
-46.35
-37.81
-29.61
-21.56
-13.76
-6.66
-0.85
3.12
5.09
5.26
4.10
2.09
-0.39
-2.96
-5.12
-6.16
-5.39
-2.36
2.80
9.47
16.81
24.16
31.32
38.43
45.72
53.11
60.22
66.47
71.41
74.86
76.83
77.35
76.35
73.74
69.64
64.54
59.23
54.61
51.44
50.11
50.64
52.78
56.03
59.72
63.04
65.03
64.75
61.51
55.03
45.61
34.10
21.68
9.60
-1.23
-10.39
-18.00
-24.58
-30.81
-37.23
-44.14
-51.46
-58.83
-65.70
-71.45
-75.50
-77.45
-77.22
-75.03
-71.48
-67.43
-63.78
-61.28
-60.19
-60.28
-60.82
-60.87
-59.50
-56.13
-50.68
-43.48
-35.15
-26.36
-17.61
-9.15
-1.03
6.69
13.89
20.27
25.46
29.12
31.12
31.57
30.71
28.79
25.94
22.12
17.34
11.75
5.78
-0.01
-4.98
-8.75
-11.18
-12.38
-12.64
-12.23
-11.39
-10.30
-9.08
-7.92
-7.06
-6.76
-7.23
-8.54
-10.65
-13.32
-16.24
-18.98
-21.08
-22.09
-21.67
-19.63
-16.10
-11.45
-6.22
-0.95
3.98
8.43
12.39
15.86
18.76
20.92
22.24
22.72
22.53
21.97
21.30
20.68
20.14
19.67
19.34
19.28
19.61
20.29
21.16
21.92
22.25
21.93
20.90
19.15
16.80
13.96
10.71
7.17
3.49
-0.23
-3.80
-7.13
-10.11
-12.72
-14.92
-16.73
-18.10
-18.97
-19.20
-18.55
-16.86
-14.10
-10.42
-6.15
-1.65
2.76
6.93
10.78
14.24
17.24
19.67
21.51
22.76
23.48
23.65
23.12
21.68
19.19
15.68
11.40
6.71
1.99
-2.46
-6.47
-9.87
-12.46
-14.01
-14.30
-13.23
-10.87
-7.51
-3.65
0.15
3.30
5.40
6.24
5.84
4.38
2.09
-0.80
-4.14
-7.82
-11.78
-15.93
-20.18
-24.38
-28.29
-31.63
-34.07
-35.29
-35.01
-33.00
-29.14
-23.51
-16.37
-8.29
-0.08
7.37
13.33
17.34
19.30
19.30
17.40
13.62
7.95
0.53
-8.19
-17.43
-26.21
-33.66
-39.19
-42.61
-43.99
-43.61
-41.77
-38.66
-34.45
-29.22
-23.07
-16.10
-8.52
-0.70
6.78
13.19
17.75
19.90
19.43
16.62
12.11
6.66
0.99
-4.41
-9.16
-12.86
-15.00
-15.08
-12.77
-8.14
-1.77
5.43
12.48
18.59
23.24
26.11
27.03
25.92
22.90
18.33
12.85
7.26
2.37
-1.14
-2.85
-2.64
-0.67
2.56
6.34
9.93
12.77
14.60
15.41
15.31
14.33
12.43
9.50
5.55
0.88
-3.99
-8.44
-11.93
-14.11
-14.95
-14.67
-13.73
-12.72
-12.23
-12.66
-14.11
-16.27
-18.58
-20.37
-21.09
-20.49
-18.54
-15.48
-11.69
-7.54
-3.32
0.82
4.89
9.03
13.29
17.54
21.36
24.14
25.38
24.81
22.58
19.11
14.88
10.17
5.03
-0.57
-6.54
-12.49
-17.76
-21.58
-23.37
-22.93
-20.39
-16.17
-10.77
-4.65
1.79
8.10
13.78
18.23
20.88
21.31
19.42
15.41
9.73
2.94
-4.32
-11.43
-17.79
-22.92
-26.48
-28.42
-28.93
-28.40
-27.26
-25.86
-24.43
-23.08
-21.88
-20.94
-20.33
-19.98
-19.60
-18.66
-16.56
-12.94
-7.90
-2.00
3.84
8.65
11.77
13.09
12.97
12.07
10.95
9.93
9.04
7.95
6.14
3.10
-1.45
-7.51
-14.60
-21.97
-28.80
-34.33
-38.35
-41.53
-45.05
-50.11
-57.47
-66.95
-77.48
-87.47
-94.99
-99.07
-100.32
-100.71
-102.66
-108.39
-118.61
-132.25
-146.16
-154.42
-150.99
-131.93
-96.61
-47.65
9.43
68.90
126.52
180.69
234.01
290.04
350.39
414.29
479.15
539.64
589.45
621.85
631.24
617.27
583.74
536.03
481.20
427.03
378.63
338.83
308.47
273.72
230.12
183.45
142.76
114.16
100.96
93.40
82.27
62.49
32.38
-3.69
-39.51
-73.84
-108.15
-133.51
-141.47
-128.38
-97.18
-54.61
-19.61
8.92
31.89
47.24
50.35
44.71
29.85
6.22
-24.16
-56.95
-86.16
-109.79
-127.62
-139.66
-147.02
-151.61
-154.16
-154.41
-151.23
-142.48
-129.22
-114.30
-100.44
-90.17
-85.91
-88.35
-96.66
-109.31
-123.40
-137.27
-150.15
-161.10
-169.14
-173.79
-174.40
-170.29
-161.49
-147.91
-130.26
-110.86
-91.59
-73.19
-55.62
-38.37
-20.56
-2.68
14.82
31.61
43.79
48.90
47.73
43.77
41.01
43.60
51.17
62.54
76.78
85.36
82.00
66.46
43.75
19.40
-0.88
-20.20
-42.73
-71.33
-119.61
-196.25
-299.15
-416.75
-536.02
-643.14
-738.28
-823.71
-900.72
-986.22
-1093.04
-1221.61
-1360.69
-1496.36
-1611.90
-1707.35
-1785.39
-1743.27
-1528.51
-1163.03
-730.50
-316.41
-13.23
203.80
360.80
472.50
545.10
576.17
563.45
519.06
467.43
430.70
425.34
445.49
479.97
518.04
544.25
553.59
553.65
561.21
588.91
643.31
714.11
785.58
838.53
853.37
823.00
754.04
666.90
583.13
520.40
484.66
473.87
476.04
478.41
475.79
468.73
466.68
478.13
483.00
462.57
445.37
439.58
429.64
410.70
361.64
279.76
176.43
70.87
-19.92
-90.15
-149.29
-205.96
-258.83
-309.72
-354.01
-387.94
-411.23
-424.31
-430.11
-437.34
-447.88
-459.41
-469.28
-471.06
-460.86
-439.28
-409.30
-375.69
-345.24
-319.44
-295.43
-270.01
-239.07
-201.46
-159.10
-114.38
-69.01
-23.67
26.26
87.38
163.75
255.87
357.53
456.40
537.73
588.94
603.11
583.74
538.91
477.75
408.94
340.30
279.73
235.26
213.17
214.96
238.26
272.12
300.78
310.48
295.56
260.00
213.90
167.70
107.31
27.90
-66.65
-164.80
-253.80
-324.76
-374.07
-403.04
-416.91
-422.81
-422.97
-417.95
-407.98
-393.83
-376.59
-357.65
-338.68
-321.09
-307.19
-295.21
-283.33
-270.49
-256.67
-242.42
-228.69
-216.70
-207.72
-202.74
-200.19
-198.56
-196.95
-195.16
-193.32
-191.67
-190.52
-190.11
-190.53
-190.51
-188.91
-184.93
-178.16
-168.32
-155.24
-138.86
-119.31
-96.98
-72.09
-45.22
-17.27
10.74
37.88
63.41
86.73
107.23
124.17
136.82
144.53
146.99
144.57
138.33
129.96
121.30
113.96
108.91
106.42
106.28
108.17
112.06
118.42
128.05
141.77
160.01
182.67
208.87
236.93
264.35
288.23
305.93
316.15
319.68
319.48
319.65
323.76
333.11
346.03
358.38
365.22
362.78
349.71
327.27
298.47
266.85
235.45
206.28
180.35
157.92
138.96
123.52
111.90
104.55
101.62
102.38
104.91
106.03
102.03
89.72
67.64
36.67
-0.03
-37.93
-72.53
-100.55
-120.58
-132.92
-138.94
-140.43
-139.01
-135.99
-132.31
-128.59
-124.96
-121.22
-117.06
-112.43
-107.76
-103.87
-101.27
-99.59
-97.34
-92.26
-82.55
-67.98
-50.42
-33.36
-20.74
-15.49
-18.76
-29.80
-46.52
-66.18
-86.15
-104.20
-118.72
-128.76
-134.14
-135.22
-132.88
-128.15
-121.87
-114.50
-105.98
-95.93
-83.87
-69.58
-53.35
-35.87
-18.03
-0.53
16.45
33.26
50.29
67.62
84.64
100.07
112.38
120.23
123.00
120.88
114.77
105.89
95.54
84.82
74.62
65.71
58.73
54.21
52.33
52.92
55.44
59.28
64.11
70.08
77.78
87.66
99.42
111.61
121.74
126.92
124.85
114.60
96.82
73.36
46.35
17.40
-12.72
-43.62
-74.44
-103.09
-126.33
-140.71
-144.07
-136.61
-121.01
-101.50
-82.23
-65.91
-53.20
-43.12
-33.91
-24.06
-12.82
0.04
14.24
29.36
44.96
60.39
74.50
85.27
90.11
86.44
72.90
50.09
20.76
-10.68
-39.33
-60.90
-72.74
-73.94
-65.26
-48.11
-24.64
2.52
30.68
57.53
81.37
100.66
114.09
120.18
119.16
111.58
98.34
80.84
61.18
42.14
25.94
14.87
9.92
14.24
29.25
53.88
84.62
116.92
147.21
172.52
193.19
210.12
229.13
253.83
283.66
314.07
339.10
354.75
358.36
352.35
339.86
330.52
331.72
346.23
372.01
404.09
437.70
466.91
490.30
462.93
359.85
184.26
-31.24
-244.51
-426.18
-550.85
-632.25
-684.11
-715.83
-725.74
-711.19
-675.89
-626.42
-571.58
-518.84
-474.82
-439.57
-411.41
-383.08
-348.96
-307.44
-261.12
-215.20
-174.20
-142.24
-118.38
-100.44
-82.72
-60.62
-32.08
2.44
40.71
80.37
118.16
152.31
180.29
200.67
212.21
214.47
208.21
195.11
177.54
157.15
135.78
114.59
95.12
78.99
67.55
61.41
59.71
60.35
60.27
56.89
48.50
34.69
16.30
-4.92
-26.72
-46.86
-63.30
-74.33
-78.84
-76.61
-68.60
-56.96
-44.60
-34.36
-28.23
-26.72
-29.04
-33.47
-38.03
-41.04
-41.24
-37.91
-30.94
-20.82
-8.78
3.30
13.27
19.27
20.37
16.97
10.68
3.86
-1.24
-3.29
-2.31
0.37
2.80
3.20
0.72
-4.40
-11.09
-18.10
-24.51
-29.89
-34.21
-37.60
-40.25
-42.48
-44.74
-47.52
-50.98
-54.66
-57.32
-57.37
-53.60
-45.73
-34.77
-22.57
-11.24
-2.43
3.03
5.18
4.66
2.45
-0.39
-2.86
-4.14
-3.84
-2.14
0.17
1.96
2.11
-0.11
-4.67
-10.77
-17.03
-21.87
-24.00
-22.84
-18.61
-12.30
-5.27
1.13
5.90
8.56
8.99
7.40
4.17
-0.14
-4.84
-9.13
-12.33
-14.03
-14.30
-13.69
-13.00
-13.03
-14.29
-16.86
-20.35
-23.97
-26.70
-27.53
-25.73
-21.14
-14.30
-6.44
0.92
6.41
9.36
10.01
9.40
8.91
9.63
11.96
15.37
18.84
21.24
21.92
20.91
18.88
16.76
15.34
14.96
15.52
16.61
17.78
18.66
19.00
18.59
17.26
14.86
11.42
7.23
2.88
-0.93
-3.54
-4.60
-4.16
-2.60
-0.59
1.18
2.17
2.06
0.78
-1.58
-4.86
-8.92
-13.59
-18.52
-23.09
-26.41
-27.59
-26.10
-22.06
-16.35
-10.30
-5.26
-2.09
-0.94
-1.31
-2.29
-3.04
-3.10
-2.53
-1.83
-1.79
-2.96
-5.41
-8.52
-11.19
-12.24
-11.05
-7.83
-3.66
-0.04
1.83
1.58
-0.03
-1.43
-0.92
2.49
8.56
15.61
20.90
21.42
14.79
0.37
-20.00
-41.83
-58.90
-65.11
-56.41
-32.81
1.52
39.32
72.22
92.96
96.90
82.77
52.95
12.90
-30.31
-70.15
-102.90
-128.64
-150.15
-170.31
-189.22
-203.19
-206.23
-193.34
-163.25
-119.16
-67.00
-12.60
40.16
89.29
133.20
169.29
193.76
202.98
195.27
171.70
136.23
94.28
51.62
13.33
-16.86
-36.71
-45.50
-43.96
-33.98
-18.24
0.24
18.44
33.65
43.74
47.54
45.06
37.48
27.02
16.42
8.25
4.32
5.23
10.25
17.57
24.85
29.90
31.30
28.78
23.26
16.36
9.82
4.80
1.67
-0.01
-1.03
-2.13
-3.56
-5.04
-5.96
-5.66
-3.83
-0.65
3.28
7.11
9.98
11.23
10.57
8.05
4.15
-0.33
-4.34
-6.80
-6.81
-4.00
1.23
7.66
13.49
16.85
16.32
11.41
2.70
-8.34
-19.75
-29.63
-36.69
-40.47
-41.39
-40.45
-38.84
-37.52
-37.05
-37.57
-38.96
-40.98
-43.47
-46.29
-49.25
-52.11
-54.53
-56.23
-57.03
-56.98
-56.23
-55.06
-53.67
-52.15
-50.38
-48.10
-45.06
-41.10
-36.39
-31.30
-26.47
-22.56
-20.23
-19.87
-21.44
-24.25
-27.03
-28.14
-26.13
-20.32
-11.09
0.39
12.79
25.41
38.36
52.22
67.13
82.16
95.27
104.09
107.07
104.33
97.54
89.09
80.97
74.03
68.01
62.05
55.44
47.87
39.48
30.64
21.99
14.45
9.26
7.67
10.22
16.13
23.16
28.17
28.28
21.94
9.61
-6.53
-23.49
-38.51
-49.95
-57.48
-61.85
-64.25
-65.53
-65.78
-64.33
-60.16
-52.66
-42.18
-30.13
-18.60
-9.57
-4.12
-2.11
-2.41
-3.42
-3.80
-2.88
-0.77
1.87
4.23
5.71
6.14
5.75
5.12
4.81
5.06
5.73
6.29
6.11
4.82
2.43
-0.67
-3.82
-6.35
-7.71
-7.54
-5.76
-2.54
1.61
5.91
9.49
11.61
11.92
10.54
8.07
5.37
3.26
2.39
2.99
4.81
7.21
9.25
10.04
9.08
6.50
2.97
-0.47
-2.93
-3.95
-3.65
-2.59
-1.49
-0.88
-0.94
-1.45
-1.95
-1.92
-0.97
1.00
3.67
6.32
8.03
8.01
5.97
2.34
-1.91
-5.66
-8.20
-9.51
-10.16
-10.93
-12.33
-14.33
-16.43
-17.98
-18.54
-17.98
-16.43
-14.03
-10.77
-6.48
-0.93
6.04
14.33
23.64
33.27
42.19
49.04
52.37
51.04
44.65
33.80
20.10
5.81
-6.77
-15.98
-21.25
-23.12
-22.99
-22.36
-22.29
-22.92
-23.53
-22.94
-20.18
-15.04
-8.29
-1.37
4.19
7.36
8.00
6.77
4.73
2.77
1.35
0.39
-0.36
-1.08
-1.66
-1.83
-1.48
-0.88
-0.67
-1.63
-4.26
-8.48
-13.61
-18.53
-22.09
-23.40
-22.07
-18.22
-12.51
-5.86
0.72
6.38
10.60
13.22
14.38
14.36
13.40
11.73
9.67
7.63
6.06
5.30
5.37
5.97
6.68
7.14
7.25
7.17
7.14
7.31
7.75
8.40
9.24
10.26
11.43
12.61
13.64
14.36
14.84
15.35
16.23
17.63
19.27
20.48
20.48
18.71
15.09
10.02
4.18
-1.75
-7.21
-11.81
-15.26
-17.36
-18.04
-17.36
-15.55
-12.88
-9.54
-5.53
-0.79
4.59
10.21
15.25
18.67
19.51
17.30
12.21
5.00
-3.24
-11.42
-18.71
-24.52
-28.33
-29.62
-27.77
-22.38
-13.54
-2.19
9.97
20.75
28.21
31.20
29.78
25.12
19.02
13.29
9.25
7.43
7.53
8.71
9.85
9.75
7.45
2.29
-5.94
-16.86
-29.61
-42.93
-55.33
-65.25
-71.18
-71.75
-66.12
-54.21
-36.95
-16.18
5.78
26.71
44.90
59.42
69.82
75.84
77.14
73.21
63.69
48.76
29.49
7.92
-13.27
-31.33
-44.18
-50.84
-51.61
-47.71
-40.71
-32.07
-22.74
-13.22
-3.87
4.94
12.72
18.90
23.03
24.91
24.59
22.38
18.76
14.30
9.55
5.00
0.97
-2.29
-4.54
-5.52
-5.08
-3.35
-0.83
1.67
3.22
3.18
1.42
-1.57
-4.81
-7.21
-7.85
-6.22
-2.30
3.38
9.84
15.96
20.61
22.93
22.50
19.32
13.82
6.63
-1.50
-9.90
-17.96
-25.26
-31.36
-35.83
-38.09
-37.47
-33.31
-25.32
-14.08
-1.29
10.39
18.11
20.04
16.72
11.55
9.77
16.31
32.98
56.62
79.50
91.65
84.42
53.45
0.12
-68.90
-143.36
-211.85
-264.01
-292.40
-293.83
-270.53
-230.00
-182.91
-139.97
-107.90
-87.01
-71.53
-53.10
-25.64
10.94
50.41
83.56
103.38
109.28
107.63
108.97
123.07
154.64
201.64
256.19
307.84
347.62
371.48
381.79
385.87
392.02
404.90
422.73
437.73
440.17
423.48
387.61
338.12
282.37
225.68
169.87
115.10
62.95
18.05
-13.23
-25.99
-19.63
1.46
29.56
56.24
74.57
80.24
71.94
51.06
21.34
-11.99
-43.73
-70.30
-90.74
-106.57
-120.52
-135.04
-151.75
-171.41
-194.26
-219.85
-246.38
-270.27
-286.60
-290.95
-281.52
-260.59
-234.17
-209.91
-194.40
-191.03
-199.52
-216.75
-238.37
-260.13
-278.43
-290.44
-294.10
-288.46
-274.19
-253.64
-230.37
-208.01
-189.21
-174.77
-163.63
-153.63
-142.68
-129.76
-115.45
-101.72
-91.14
-86.08
-88.12
-97.62
-113.62
-133.64
-153.82
-169.37
-175.68
-169.60
-150.55
-120.63
-83.76
-44.09
-4.51
34.11
72.51
111.83
152.42
192.96
230.53
261.29
281.52
288.44
280.78
258.96
224.98
182.13
134.58
86.84
43.04
6.25
-22.04
-41.99
-55.06
-63.23
-68.17
-70.77
-71.11
-68.78
-63.54
-55.60
-45.85
-35.57
-26.14
-18.69
-13.80
-11.38
-10.68
-10.42
-9.10
-5.45
1.13
10.33
20.96
31.33
39.87
45.66
48.82
50.38
51.84
54.54
59.11
65.22
71.67
76.78
78.84
76.54
69.30
57.40
42.10
25.36
9.53
-3.23
-11.45
-14.64
-13.39
-9.04
-3.18
2.77
7.91
11.82
14.49
16.19
17.26
18.13
19.24
21.01
23.82
27.97
33.69
41.14
50.32
61.11
73.15
85.85
98.33
109.47
118.10
123.15
123.89
120.10
112.10
100.59
86.52
70.82
54.35
37.86
22.00
7.31
-5.86
-17.39
-27.44
-36.27
-44.20
-51.44
-58.07
-64.17
-69.87
-75.35
-80.82
-86.46
-92.32
-98.26
-103.92
-108.66
-111.60
-111.77
-108.42
-101.33
-91.00
-78.51
-65.05
-51.47
-37.96
-24.20
-9.86
5.02
19.78
33.36
44.84
53.80
60.39
65.11
68.32
70.08
70.18
68.61
65.89
63.00
61.05
60.63
61.37
61.97
60.73
56.24
47.97
36.38
22.73
8.49
-5.02
-16.84
-26.41
-33.41
-37.75
-39.51
-39.00
-36.72
-33.29
-29.25
-25.02
-20.80
-16.72
-12.93
-9.72
-7.51
-6.75
-7.77
-10.58
-14.72
-19.29
-23.12
-25.11
-24.56
-21.45
-16.43
-10.60
-5.16
-0.97
1.72
3.26
4.38
5.88
8.18
11.24
14.62
17.78
20.36
22.53
24.78
27.79
31.93
37.04
42.32
46.61
48.67
47.63
43.20
35.69
25.93
15.06
4.29
-5.24
-12.65
-17.36
-19.26
-18.60
-15.97
-12.08
-7.66
-3.35
0.23
2.38
2.27
-0.86
-7.39
-16.90
-28.06
-38.83
-47.04
-51.11
-50.54
-45.92
-38.57
-29.85
-20.73
-11.69
-2.86
5.62
13.54
20.61
26.65
31.77
36.25
40.31
43.93
46.79
48.45
48.61
47.35
45.10
42.41
39.73
37.24
34.93
32.68
30.39
28.08
25.81
23.71
21.95
20.85
20.76
21.97
24.51
27.96
31.57
34.41
35.76
35.38
33.54
30.90
28.18
25.81
23.74
21.53
18.58
14.51
9.43
3.98
-0.86
-4.16
-5.40
-4.68
-2.63
-0.06
2.25
3.83
4.49
4.16
2.74
0.04
-4.15
-9.83
-16.73
-24.24
-31.49
-37.59
-41.72
-43.32
-42.18
-38.48
-32.78
-25.98
-19.15
-13.33
-9.38
-7.85
-8.99
-12.84
-19.32
-28.16
-38.81
-50.40
-61.70
-71.39
-78.46
-82.54
-84.03
-83.93
-83.35
-82.91
-82.44
-80.92
-76.95
-69.31
-57.49
-41.83
-23.32
-3.30
16.92
36.14
53.31
67.46
77.81
83.86
85.52
83.17
77.44
68.97
58.40
46.32
33.47
20.82
9.50
0.52
-5.46
-8.37
-8.64
-7.13
-4.82
-2.65
-1.38
-1.41
-2.74
-4.95
-7.24
-8.74
-8.69
-6.68
-2.81
2.39
8.15
13.67
18.20
21.24
22.44
21.59
18.62
13.50
6.42
-2.26
-11.95
-21.82
-30.91
-38.29
-43.17
-45.08
-43.95
-40.20
-34.71
-28.65
-23.24
-19.49
-17.95
-18.64
-21.10
-24.54
-28.04
-30.69
-31.71
-30.46
-26.54
-19.77
-10.16
2.04
16.42
32.25
48.47
63.64
76.02
83.82
85.55
80.33
68.18
50.07
27.77
3.63
-19.86
-40.38
-56.15
-66.11
-70.19
-69.31
-65.27
-60.54
-57.92
-60.02
-68.80
-85.03
-107.83
-134.56
-161.04
-182.28
-193.65
-192.22
-177.48
-151.48
-118.12
-81.82
-46.11
-12.82
18.09
48.01
78.74
112.11
149.83
193.44
243.76
299.81
357.95
411.90
454.37
479.55
485.65
475.70
455.94
432.76
409.75
386.67
360.75
329.26
291.30
249.00
206.40
167.37
134.00
106.14
82.35
61.16
42.06
24.52
8.65
-5.38
-17.95
-30.20
-43.87
-60.62
-81.30
-105.54
-133.75
-165.92
-201.86
-241.33
-283.85
-328.21
-372.16
-412.57
-446.45
-474.24
-497.42
-517.24
-533.40
-543.86
-545.89
-537.64
-519.18
-482.08
-425.59
-355.23
-280.61
-210.70
-150.53
-101.22
-61.89
-31.79
-7.24
13.19
30.93
47.65
64.94
83.96
105.27
127.44
149.84
173.08
197.14
223.00
251.90
284.05
317.29
346.97
367.22
373.72
365.68
345.22
317.65
289.24
264.58
244.84
227.93
210.40
190.12
167.81
146.11
128.59
117.67
113.23
112.40
110.73
103.80
88.75
64.81
33.03
-3.55
-39.86
-69.22
-85.17
-84.32
-69.04
-47.76
-32.05
-31.49
-48.50
-76.79
-104.28
-119.52
-117.83
-103.74
-88.42
-83.51
-95.81
-124.51
-162.75
-200.92
-230.23
-245.08
-244.09
-229.90
-208.03
-186.06
-171.70
-170.08
-181.37
-199.98
-216.15
-219.45
-202.61
-163.47
-106.96
-44.25
10.78
46.35
57.14
46.34
24.78
7.54
9.73
39.72
95.79
167.17
238.62
296.25
331.64
343.39
329.93
295.38
247.71
195.62
145.43
99.54
57.02
16.21
-22.88
-59.57
-89.90
-108.64
-112.19
-100.54
-77.85
-51.53
-28.44
-16.92
-21.88
-41.60
-70.22
-102.03
-133.11
-160.04
-178.70
-184.52
-175.14
-152.39
-123.66
-95.92
-75.18
-63.62
-57.97
-51.72
-38.35
-13.94
22.78
71.22
129.10
191.90
250.50
295.07
316.77
310.08
274.90
217.88
151.24
89.35
43.84
20.05
15.70
21.63
25.25
15.44
-13.09
-57.93
-110.41
-159.90
-198.17
-221.99
-233.37
-237.02
-236.95
-233.98
-225.83
-209.20
-182.59
-147.74
-108.84
-70.61
-35.67
-3.51
28.54
63.02
100.15
137.09
169.01
191.32
201.11
197.84
182.78
158.27
127.31
93.38
59.97
29.59
2.85
-21.55
-45.41
-69.04
-89.86
-102.90
-103.16
-88.36
-60.08
-22.66
19.45
63.96
110.89
160.51
210.72
255.72
287.17
297.12
281.22
240.68
182.14
115.93
53.71
6.27
-18.82
-18.96
2.22
35.13
66.49
83.06
75.77
42.16
-13.67
-83.58
-158.66
-231.81
-298.26
-354.60
-397.36
-422.65
-427.11
-409.53
-371.99
-319.60
-258.93
-196.18
-136.00
-81.40
-34.29
3.62
30.65
45.57
48.33
40.56
25.66
8.23
-6.72
-14.72
-12.70
0.46
23.73
54.22
87.97
120.95
149.91
172.99
189.60
200.12
205.27
205.59
201.35
192.66
179.77
163.34
144.47
124.46
104.42
84.97
66.07
47.16
27.37
5.93
-17.42
-42.16
-66.70
-88.56
-104.71
-112.24
-109.19
-95.23
-71.93
-42.57
-11.49
16.92
39.03
52.64
57.16
53.40
43.08
28.48
12.00
-3.96
-17.22
-25.96
-29.10
-26.56
-19.36
-9.35
1.37
11.01
18.59
23.87
27.07
28.45
28.00
25.49
20.73
13.82
5.30
-3.89
-12.63
-19.90
-24.95
-27.38
-27.16
-24.59
-20.23
-14.91
-9.57
-5.21
-2.64
-2.24
-3.88
-6.90
-10.37
-13.37
-15.34
-16.18
-16.14
-15.66
-15.04
-14.35
-13.46
-12.15
-10.31
-8.01
-5.51
-3.08
-0.94
0.86
2.35
3.55
4.42
4.87
4.82
4.32
3.58
2.90
2.53
2.59
3.02
3.59
4.03
4.15
3.84
3.15
2.25
1.32
0.56
0.02
-0.39
-0.85
-1.56
-2.56
-3.65
-4.49
-4.68
-4.02
-2.65
-1.02
0.27
0.67
-0.19
-2.42
-6.03
-10.86
-16.55
-22.48
-27.67
-30.97
-31.37
-28.33
-22.05
-13.44
-3.87
5.28
12.86
18.23
21.32
22.51
22.47
21.85
21.07
20.32
19.45
18.11
15.96
12.92
9.30
5.73
2.91
1.29
1.17
2.36
4.22
5.79
6.22
5.10
2.72
0.06
-1.39
0.29
6.55
17.67
32.26
47.47
59.65
65.81
64.59
55.21
39.58
21.75
6.33
-3.68
-8.07
-8.99
-8.69
-8.26
-7.36
-4.78
0.25
7.20
14.36
19.58
20.95
18.16
12.37
5.64
-0.06
-3.69
-5.69
-7.90
-12.59
-22.03
-37.16
-57.92
-83.41
-111.58
-139.00
-160.86
-172.04
-165.66
-141.80
-105.67
-65.76
-30.51
-5.08
9.93
17.50
21.62
24.94
27.48
28.58
28.23
27.85
29.93
36.65
48.75
64.75
81.63
95.98
106.21
112.91
118.09
124.32
133.86
148.43
168.57
193.13
218.97
241.54
255.23
254.46
236.15
201.28
155.70
107.35
63.28
27.59
1.21
-17.56
-32.16
-45.82
-61.22
-79.93
-101.59
-126.85
-155.68
-185.37
-210.55
-225.71
-226.71
-213.01
-187.14
-155.61
-126.44
-105.86
-95.68
-88.34
-76.60
-55.71
-33.72
-15.78
-6.60
-7.07
-19.43
-45.17
-84.15
-134.35
-190.32
-243.56
-283.20
-301.31
-295.51
-269.77
-231.73
-189.53
-149.34
-112.89
-78.31
-41.59
-1.06
41.17
79.69
108.85
125.00
127.05
116.21
94.35
63.58
25.33
-17.81
-60.86
-96.07
-115.25
-113.33
-90.49
-52.05
-5.50
42.39
87.84
129.77
168.21
202.29
229.75
248.21
256.94
257.93
254.98
251.81
250.11
248.80
244.68
234.30
215.84
189.97
159.55
128.16
98.64
71.99
47.29
22.10
-6.61
-41.38
-83.34
-131.33
-181.66
-228.44
-265.04
-285.74
-287.54
-270.86
-239.30
-198.35
-153.82
-110.69
-72.48
-41.35
-18.28
-3.31
4.59
7.50
8.34
10.24
15.56
25.29
38.63
53.09
65.46
73.04
74.68
71.17
64.65
57.44
51.21
46.44
42.39
37.53
30.34
20.05
7.16
-6.28
-17.14
-21.35
-15.38
1.80
27.43
54.94
75.55
80.69
64.72
26.81
-27.98
-89.79
-146.93
-189.45
-212.00
-214.92
-203.44
-183.17
-161.63
-145.51
-137.72
-137.02
-140.12
-144.36
-148.49
-151.89
-153.68
-151.89
-144.20
-129.11
-106.73
-78.76
-47.65
-15.02
19.32
54.82
91.88
130.71
170.38
208.33
240.80
264.13
276.30
277.70
270.82
259.70
248.67
241.41
240.02
244.30
251.40
256.27
252.86
235.81
202.39
153.28
92.65
27.15
-35.45
-87.67
-123.54
-139.77
-136.78
-118.84
-93.48
-69.53
-54.27
-51.09
-58.38
-70.53
-80.24
-81.41
-70.98
-49.49
-19.92
14.03
49.27
83.47
114.35
138.85
153.00
153.26
138.16
109.37
71.34
29.48
-11.81
-50.34
-85.90
-119.12
-150.02
-177.55
-199.94
-215.41
-222.76
-221.46
-211.43
-192.86
-166.31
-132.66
-92.93
-47.76
2.73
58.32
117.44
175.98
227.32
264.01
280.36
274.72
250.03
212.31
167.96
121.49
74.92
29.26
-13.55
-49.91
-75.41
-87.17
-85.43
-73.75
-57.29
-40.71
-26.46
-14.46
-2.66
11.86
31.71
58.29
90.73
125.29
155.29
172.93
172.08
150.48
110.77
59.08
2.86
-51.55
-100.05
-140.84
-173.06
-194.61
-203.69
-200.87
-190.81
-181.26
-181.46
-195.24
-220.22
-248.52
-269.43
-274.00
-256.37
-218.43
-168.33
-116.74
-71.86
-36.77
-9.00
17.24
47.61
85.59
131.27
182.26
234.44
282.77
321.62
345.76
351.90
339.58
311.41
271.45
223.27
168.67
108.11
42.54
-24.50
-86.09
-133.77
-160.26
-162.81
-144.47
-112.75
-76.35
-41.75
-11.61
15.05
38.22
57.31
71.32
78.83
77.57
64.45
36.99
-4.77
-56.51
-110.19
-155.65
-184.04
-191.13
-178.35
-151.55
-118.09
-85.51
-57.30
-35.59
-21.28
-13.89
-11.25
-9.60
-4.60
7.18
26.44
51.21
77.42
101.16
120.06
133.48
141.97
144.93
142.78
136.39
127.25
116.93
107.01
98.45
91.10
83.87
75.28
64.57
51.85
38.09
24.31
11.13
-1.66
-15.09
-30.41
-48.40
-68.62
-89.58
-109.12
-125.16
-136.16
-141.40
-140.94
-135.40
-125.86
-113.60
-100.30
-87.77
-77.67
-71.08
-68.18
-68.18
-69.67
-70.99
-70.74
-68.09
-62.85
-55.34
-46.18
-36.11
-25.77
-15.66
-6.05
3.03
11.73
20.20
28.49
36.43
43.64
49.68
54.16
56.89
57.85
57.30
55.65
53.53
51.61
50.52
50.53
51.38
52.21
51.63
48.15
40.56
28.40
12.21
-6.58
-25.87
-43.50
-57.63
-67.16
-71.79
-72.01
-68.84
-63.50
-57.17
-50.75
-44.79
-39.57
-35.12
-31.42
-28.39
-25.93
-23.89
-22.01
-19.97
-17.49
-14.39
-10.72
-6.70
-2.60
1.35
5.01
8.31
11.14
13.36
14.76
15.20
14.68
13.41
11.70
9.92
8.35
7.14
6.29
5.71
5.26
4.78
4.18
3.41
2.51
1.59
0.78
0.20
-0.12
-0.24
-0.27
-0.31
-0.42
-0.58
-0.76
-0.94
-1.21
-1.64
-2.25
-2.91
-3.34
-3.26
-2.48
-1.05
0.76
2.59
4.14
5.24
5.89
6.14
6.04
5.60
4.87
3.91
2.89
1.94
1.12
0.43
-0.13
-0.51
-0.61
-0.36
0.23
0.97
1.61
1.85
1.55
0.70
-0.58
-2.10
-3.67
-5.08
-6.13
-6.65
-6.59
-6.04
-5.25
-4.54
-4.15
-4.17
-4.45
-4.70
-4.64
-4.07
-2.97
-1.48
0.21
1.94
3.56
4.97
6.01
6.54
6.38
5.46
3.83
1.71
-0.53
-2.56
-4.10
-5.10
-5.64
-5.88
-5.99
-6.00
-5.87
-5.48
-4.74
-3.67
-2.36
-1.00
0.28
1.38
2.36
3.28
4.21
5.15
5.98
6.53
6.65
6.26
5.44
4.38
3.41
2.84
2.98
3.94
5.59
7.60
9.50
10.83
11.33
10.95
9.87
8.36
6.68
5.03
3.52
2.23
1.23
0.55
0.15
-0.11
-0.39
-0.84
-1.48
-2.29
-3.16
-4.01
-4.77
-5.37
-5.74
-5.79
-5.48
-4.78
-3.76
-2.54
-1.26
-0.08
0.93
1.65
2.04
2.10
1.93
1.74
1.72
2.07
2.87
4.04
5.40
6.72
7.80
8.52
8.89
8.99
8.97
8.96
9.02
9.14
9.25
9.26
9.16
8.99
8.84
8.77
8.77
8.69
8.36
7.67
6.68
5.62
4.81
4.54
4.83
5.43
5.90
5.79
4.88
3.27
1.33
-0.48
-1.76
-2.38
-2.46
-2.38
-2.57
-3.43
-5.10
-7.45
-9.96
-11.84
-12.24
-10.54
-6.68
-1.22
4.72
9.87
13.37
15.06
15.69
16.58
19.22
24.54
32.55
42.16
51.41
58.02
59.95
55.95
45.93
30.85
12.54
-6.90
-25.45
-41.57
-54.14
-62.49
-66.15
-64.88
-58.62
-47.69
-32.97
-16.00
0.98
15.33
24.47
26.53
20.83
8.12
-9.58
-29.43
-48.39
-63.74
-73.44
-76.35
-72.31
-62.17
-47.72
-31.37
-15.68
-2.76
6.15
10.94
12.39
11.91
10.97
10.75
11.81
14.11
17.09
20.01
22.19
23.25
23.21
22.42
21.37
20.49
19.97
19.73
19.49
18.97
18.07
16.91
15.76
14.85
14.25
13.83
13.33
12.57
11.52
10.26
8.98
7.76
6.58
5.36
3.98
2.44
0.75
-1.02
-2.82
-4.59
-6.25
-7.62
-8.48
-8.59
-7.82
-6.21
-4.05
-1.75
0.22
1.59
2.33
2.62
2.73
2.86
3.00
3.02
2.77
2.22
1.55
1.02
0.91
1.33
2.28
3.60
5.14
6.73
8.20
9.38
10.10
10.26
9.87
9.06
8.02
6.90
5.80
4.73
3.69
2.71
1.86
1.21
0.81
0.56
0.30
-0.20
-1.08
-2.40
-4.05
-5.83
-7.50
-8.83
-9.65
-9.83
-9.31
-8.10
-6.29
-4.08
-1.71
0.56
2.57
4.22
5.49
6.38
6.91
7.09
6.96
6.58
6.06
5.50
4.96
4.49
4.09
3.76
3.56
3.52
3.66
3.95
4.29
4.56
4.68
4.59
4.36
4.06
3.77
3.55
3.39
3.22
2.96
2.51
1.88
1.08
0.24
-0.55
-1.16
-1.57
-1.78
-1.88
-2.00
-2.30
-2.86
-3.73
-4.88
-6.23
-7.71
-9.23
-10.70
-11.94
-12.70
-12.67
-11.68
-9.70
-6.96
-3.83
-0.71
2.10
4.44
6.30
7.76
8.94
9.93
10.83
11.69
12.52
13.27
13.82
14.01
13.68
12.75
11.23
9.27
7.10
5.06
3.41
2.29
1.64
1.24
0.84
0.33
-0.22
-0.68
-0.88
-0.83
-0.69
-0.75
-1.31
-2.49
-4.06
-5.57
-6.45
-6.30
-5.02
-2.97
-0.84
0.51
0.37
-1.32
-4.17
-7.33
-9.88
-11.14
-11.01
-9.98
-9.02
-9.13
-10.45
-12.45
-14.12
-14.39
-12.71
-9.42
-5.75
-3.48
-4.31
-8.08
-13.55
-18.70
-21.18
-19.11
-11.55
0.82
15.23
26.70
30.56
22.39
0.20
-33.59
-71.55
-102.36
-113.95
-97.14
-48.68
29.61
129.37
237.67
339.99
423.55
480.22
507.91
510.11
481.79
423.92
342.45
247.88
152.50
66.62
-3.58
-56.29
-93.31
-118.45
-134.21
-142.68
-145.24
-142.76
-136.05
-125.92
-113.62
-100.94
-89.75
-80.10
-71.56
-63.51
-55.42
-47.07
-38.48
-29.94
-22.46
-16.81
-12.65
-9.40
-6.43
-3.26
0.44
4.87
10.08
15.61
21.21
27.15
33.74
41.07
49.06
57.43
66.04
74.72
82.97
90.59
97.64
104.00
109.18
112.27
111.99
106.72
98.42
87.84
75.85
63.36
50.93
38.60
25.95
12.42
-2.24
-18.66
-37.32
-57.67
-78.50
-98.74
-117.93
-136.31
-154.61
-173.54
-195.66
-222.89
-254.82
-288.35
-318.63
-340.80
-351.39
-349.40
-336.17
-317.93
-300.43
-286.38
-274.87
-263.41
-250.49
-236.77
-224.96
-218.10
-222.30
-240.16
-269.26
-303.19
-334.87
-359.56
-375.80
-384.92
-365.00
-304.77
-206.14
-85.43
36.22
143.28
228.78
291.81
330.44
348.69
344.75
317.55
269.76
208.66
143.98
84.41
39.77
20.71
30.58
59.51
91.90
114.46
122.30
118.72
110.59
103.79
100.19
98.26
93.09
81.97
65.77
48.05
32.69
21.95
16.38
14.58
14.37
12.67
7.92
0.50
-7.76
-14.61
-18.54
-18.43
-14.59
-8.54
-2.88
0.17
-0.34
-3.90
-8.84
-13.25
-15.36
-14.44
-10.73
-4.75
3.07
12.04
20.08
23.22
16.56
-3.12
-34.90
-72.65
-106.67
-127.21
-128.03
-108.79
-73.73
-29.67
17.51
64.69
111.16
156.31
197.81
231.45
253.14
261.57
259.40
252.18
245.52
241.94
239.51
232.69
215.27
183.10
135.79
76.46
10.86
-54.02
-111.13
-154.32
-179.38
-185.02
-173.08
-147.67
-113.67
-75.06
-34.43
6.36
45.09
78.81
104.67
121.21
129.02
130.03
125.85
116.38
99.52
72.37
32.99
-17.88
-76.01
-134.30
-184.17
-217.82
-230.45
-221.83
-196.35
-161.30
-123.70
-87.42
-52.31
-15.59
25.27
70.06
115.36
156.23
188.70
211.42
225.45
232.40
232.97
226.64
212.69
191.33
164.48
135.20
106.56
80.74
58.39
39.38
23.52
10.96
1.67
-4.73
-8.96
-11.43
-11.83
-10.41
-7.91
-5.45
-3.82
-2.86
-1.10
3.94
14.52
31.02
49.54
63.98
69.30
64.18
51.35
35.51
20.71
8.49
-2.80
-19.04
-46.97
-90.69
-149.56
-218.51
-289.74
-354.48
-404.84
-425.03
-405.75
-351.52
-280.41
-212.77
-160.18
-123.73
-98.80
-80.50
-66.44
-58.05
-57.27
-63.42
-72.41
-78.96
-79.68
-74.31
-65.08
-55.53
-49.06
-47.77
-51.21
-56.58
-60.59
-61.42
-59.34
-56.00
-53.32
-52.88
-55.26
-59.37
-62.87
-63.33
-59.41
-50.93
-38.11
-23.33
-7.81
8.02
24.54
42.41
62.04
83.07
104.44
124.97
143.80
161.01
177.34
194.18
213.19
235.53
260.93
287.19
310.26
324.95
326.63
312.11
280.72
234.57
178.19
117.66
59.36
8.60
-31.19
-58.55
-73.63
-77.34
-70.79
-55.16
-32.07
-4.02
25.63
53.24
76.04
92.82
103.74
109.53
110.73
107.60
100.72
91.59
82.66
76.78
76.20
81.76
92.59
106.57
120.81
131.88
135.54
126.95
102.15
60.28
5.13
-55.41
-111.83
-156.13
-183.84
-194.06
-187.89
-166.58
-131.03
-83.21
-29.45
18.69
48.06
50.98
30.32
-2.29
-33.31
-54.02
-63.00
-64.27
-63.25
-63.32
-64.81
-66.21
-65.93
-63.23
-57.99
-50.45
-41.07
-30.61
-20.00
-10.31
-2.39
3.34
7.13
9.80
12.10
14.40
15.98
15.35
10.84
0.94
-15.06
-36.62
-61.14
-83.71
-97.17
-93.99
-69.23
-23.64
35.04
93.89
139.30
162.38
162.04
144.91
121.40
100.48
86.22
77.54
70.84
63.24
56.32
52.23
52.37
55.65
58.29
54.99
41.14
14.47
-24.19
-71.07
-120.01
-162.79
-190.35
-195.01
-173.10
-127.02
-65.46
-1.05
53.62
89.66
104.19
99.79
81.92
56.29
27.39
-1.52
-27.49
-47.38
-58.49
-59.38
-51.10
-36.98
-21.82
-9.93
-3.74
-2.99
-5.17
-6.83
-5.19
0.58
9.11
17.55
23.01
23.83
20.44
15.29
11.70
12.35
17.48
24.89
30.78
31.26
23.85
8.29
-13.64
-39.25
-65.91
-92.66
-119.23
-145.32
-170.54
-195.02
-220.28
-248.95
-283.28
-322.90
-364.57
-400.45
-420.05
-414.18
-378.92
-316.91
-236.01
-146.14
-56.80
21.79
81.70
118.51
131.47
123.07
98.36
63.63
24.39
-16.63
-62.83
-117.86
-181.18
-246.60
-304.58
-346.36
-367.61
-369.90
-339.72
-276.91
-194.23
-110.44
-38.99
16.37
57.79
88.27
109.62
121.67
124.93
121.79
116.85
115.51
121.25
134.38
152.79
174.14
195.36
212.84
225.57
235.35
245.43
258.24
274.25
292.37
310.93
328.67
342.48
350.12
350.76
345.12
334.78
321.13
304.58
284.25
258.61
224.69
181.89
132.95
83.43
39.57
5.67
-17.39
-35.21
-47.71
-60.76
-78.56
-103.62
-136.12
-173.47
-210.08
-238.50
-251.76
-246.17
-224.91
-196.02
-170.04
-155.86
-157.41
-172.64
-195.08
-216.24
-228.79
-229.50
-218.11
-196.72
-168.51
-136.73
-104.27
-73.48
-45.11
-19.67
1.44
17.02
26.87
32.44
36.66
42.81
53.17
69.96
93.58
122.71
155.72
191.31
228.51
265.77
300.51
329.68
353.15
372.00
387.40
399.48
406.86
407.27
398.92
381.89
345.34
287.23
214.39
139.61
74.46
24.03
-12.34
-37.42
-53.48
-61.94
-62.29
-55.00
-42.47
-28.44
-16.41
-8.20
-3.73
-1.77
-0.70
1.17
4.67
9.17
13.04
14.71
13.73
10.81
7.26
4.38
3.15
3.98
6.33
9.00
10.73
10.64
8.01
1.49
-5.64
-12.63
-19.52
-26.88
-35.35
-45.25
-56.36
-68.16
-80.16
-92.10
-104.73
-118.89
-135.66
-156.09
-180.61
-208.42
-237.09
-262.67
-280.63
-287.86
-283.12
-267.74
-245.26
-220.03
-195.88
-175.09
-158.28
-145.05
-135.07
-127.95
-123.16
-119.71
-116.00
-110.15
-100.72
-87.33
-70.76
-52.87
-35.50
-19.94
-6.68
4.27
12.92
19.13
22.57
23.08
20.80
16.34
10.48
3.89
-3.09
-10.33
-17.65
-24.62
-30.44
-34.23
-35.27
-33.31
-28.56
-21.42
-12.04
-0.04
15.45
35.30
59.60
87.15
115.49
141.59
162.88
178.11
187.45
191.94
192.65
190.02
183.83
173.68
159.57
142.22
123.01
103.43
84.55
66.68
49.45
32.18
14.42
-3.66
-21.09
-36.40
-48.14
-55.58
-59.11
-60.26
-61.06
-63.21
-67.32
-72.78
-78.25
-82.49
-85.08
-86.62
-88.33
-91.26
-95.52
-99.93
-102.45
-100.99
-94.19
-81.68
-63.80
-41.05
-13.71
18.01
53.60
91.73
130.41
167.62
202.08
233.61
262.77
289.73
313.51
331.92
342.43
343.59
335.79
320.94
301.33
278.24
251.43
219.79
182.55
140.54
96.36
53.55
15.30
-16.68
-42.25
-62.33
-77.91
-89.51
-97.20
-101.08
-101.70
-100.23
-98.17
-96.84
-96.95
-98.52
-101.11
-104.14
-107.21
-110.23
-113.42
-116.96
-120.80
-124.56
-127.64
-129.40
-129.53
-128.13
-125.73
-123.08
-120.97
-120.02
-120.67
-123.12
-127.30
-132.68
-138.27
-142.71
-144.63
-143.15
-138.18
-130.52
-121.46
-112.22
-103.42
-94.89
-85.78
-75.13
-62.48
-48.23
-33.49
-19.67
-7.70
2.39
11.49
20.81
31.13
42.20
52.80
61.24
66.16
67.10
64.66
60.12
54.86
50.00
46.09
43.34
41.67
40.93
40.71
40.32
38.76
34.94
28.16
18.52
6.98
-4.85
-15.39
-23.57
-29.19
-32.73
-34.96
-36.42
-37.33
-37.69
-37.64
-37.69
-38.71
-41.61
-46.97
-54.65
-63.76
-72.90
-80.58
-85.65
-87.60
-86.57
-83.21
-78.35
-72.83
-67.37
-62.66
-59.39
-58.08
-58.90
-61.49
-64.92
-68.06
-70.09
-70.89
-71.18
-72.16
-74.82
-79.35
-84.93
-90.01
-93.11
-93.46
-91.47
-88.49
-86.32
-86.38
-89.39
-95.25
-103.21
-112.10
-120.43
-126.25
-127.29
-121.57
-108.28
-88.60
-65.71
-43.58
-25.27
-11.38
0.33
13.91
33.36
61.02
97.15
140.59
189.70
242.64
296.69
347.44
388.75
414.06
418.75
402.21
368.40
324.51
278.33
235.63
198.77
167.02
138.09
110.06
82.53
56.74
34.76
18.19
7.23
0.53
-4.25
-9.33
-15.83
-23.56
-31.36
-37.97
-42.67
-45.42
-46.52
-46.10
-43.92
-39.58
-32.92
-24.33
-14.62
-4.60
5.33
15.24
25.52
36.39
47.72
59.06
69.92
80.08
89.51
98.16
105.57
110.82
112.87
111.02
105.33
96.60
85.99
74.57
63.04
51.66
40.50
29.63
19.22
9.46
0.56
-7.16
-13.11
-16.33
-15.77
-10.72
-1.31
11.28
25.08
38.07
48.86
57.01
62.75
66.24
67.03
63.83
55.00
39.30
16.54
-12.27
-45.24
-80.14
-114.88
-147.63
-176.57
-199.75
-215.17
-221.10
-216.52
-201.31
-176.43
-143.92
-106.86
-69.26
-35.55
-9.60
6.46
12.84
12.12
8.13
4.49
3.36
4.92
7.72
9.33
7.20
-0.76
-15.50
-36.26
-60.32
-83.50
-101.36
-110.84
-111.50
-105.60
-97.16
-90.36
-88.02
-90.87
-97.52
-105.03
-109.78
-108.45
-99.14
-82.22
-60.64
-39.18
-22.76
-14.58
-15.05
-21.95
-31.78
-41.46
-49.30
-54.99
-58.70
-60.18
-58.55
-52.83
-42.83
-29.70
-15.69
-3.16
6.54
13.56
19.41
25.88
34.09
43.74
53.31
60.69
64.22
63.33
58.75
51.99
44.62
37.53
30.57
22.71
12.61
-0.79
-17.77
-37.59
-58.49
-77.98
-93.33
-102.05
-102.46
-94.08
-77.63
-54.98
-28.76
-1.98
22.33
41.62
54.47
61.02
63.01
63.08
63.79
66.59
71.48
77.46
83.39
88.76
93.87
99.38
105.69
112.69
119.80
126.42
132.26
137.31
141.46
144.25
144.89
142.57
136.92
128.19
117.24
105.20
93.07
81.40
70.34
59.75
49.61
40.12
31.45
23.56
15.93
7.37
-3.74
-18.92
-39.08
-63.99
-92.39
-122.66
-153.13
-182.40
-209.50
-233.99
-256.03
-276.37
-296.17
-316.64
-339.21
-364.30
-390.88
-416.39
-437.39
-450.29
-451.97
-439.99
-412.84
-371.20
-317.14
-254.09
-186.10
-117.61
-52.80
5.20
55.03
97.13
131.87
160.04
182.17
198.66
209.13
212.88
209.69
200.82
197.36
207.98
236.13
277.29
322.48
362.92
393.62
413.40
423.67
426.90
424.07
416.43
403.81
386.63
365.63
342.06
317.15
292.10
267.73
243.34
217.48
187.86
155.67
121.45
85.58
48.43
10.69
-26.63
-63.10
-98.34
-132.32
-164.90
-196.62
-228.32
-261.36
-297.51
-338.32
-384.39
-433.67
-480.95
-518.39
-538.56
-537.03
-514.47
-476.53
-431.63
-387.92
-350.59
-321.11
-298.10
-279.52
-263.84
-250.45
-239.06
-229.00
-218.99
-207.49
-193.45
-176.64
-157.80
-138.15
-118.81
-100.33
-82.64
-65.18
-47.21
-28.08
-7.41
14.84
38.57
63.52
89.43
116.08
143.22
170.63
198.10
225.46
252.67
280.04
308.42
338.97
372.46
408.20
443.26
472.63
490.47
492.10
475.97
444.42
402.95
358.33
316.37
280.54
251.85
229.63
212.78
200.42
192.02
186.92
183.99
181.58
177.98
171.85
162.49
149.87
134.28
115.96
94.97
71.69
47.20
23.30
2.08
-14.95
-27.35
-35.67
-41.02
-44.32
-45.69
-44.66
-40.84
-34.51
-27.09
-20.36
-15.57
-12.97
-11.74
-10.13
-6.31
1.03
12.26
26.37
41.88
57.93
73.47
87.17
97.93
104.89
107.66
106.47
101.13
92.07
81.40
70.49
59.55
48.61
37.45
25.82
13.08
-3.49
-26.86
-57.70
-97.12
-146.16
-203.67
-266.01
-326.96
-379.45
-419.46
-445.23
-454.98
-450.74
-437.62
-420.53
-403.29
-386.96
-360.08
-318.17
-279.26
-251.47
-232.20
-219.68
-210.67
-201.31
-186.10
-160.89
-127.10
-89.61
-51.68
-16.59
13.78
40.66
66.91
98.34
140.41
194.34
258.16
329.92
405.83
480.19
546.46
579.81
560.49
485.47
372.27
249.12
139.63
52.57
-15.68
-72.62
-120.58
-157.26
-175.56
-170.60
-144.30
-104.62
-62.55
-27.33
-2.86
8.24
10.13
9.42
10.63
14.34
18.77
22.54
26.55
33.38
45.11
62.77
84.26
104.03
114.90
111.47
92.70
62.25
26.65
-7.40
-34.00
-49.75
-54.31
-50.01
-40.60
-29.82
-20.28
-13.06
-7.72
-2.35
5.26
16.39
30.89
47.27
63.37
77.06
86.65
91.12
90.27
84.66
75.49
64.48
53.46
43.97
36.74
31.51
27.14
22.23
15.62
6.87
-3.59
-14.75
-25.38
-34.61
-42.07
-47.91
-52.52
-56.31
-59.50
-62.21
-64.49
-66.41
-68.16
-69.91
-71.79
-73.90
-76.35
-79.25
-82.58
-85.99
-88.61
-89.11
-86.08
-78.60
-66.80
-51.93
-36.07
-21.34
-9.28
-0.42
5.61
9.61
12.38
14.34
15.56
15.89
15.25
13.64
11.24
8.22
4.83
1.39
-1.68
-3.81
-4.39
-2.97
0.58
5.95
12.45
19.14
25.07
29.50
31.91
32.09
30.03
25.87
19.89
12.55
4.49
-3.55
-10.91
-17.20
-22.39
-26.75
-30.72
-34.65
-38.85
-43.43
-48.35
-53.27
-57.49
-59.97
-59.58
-55.50
-47.63
-36.65
-23.91
-10.95
1.01
11.27
19.63
26.12
30.76
33.49
34.31
33.49
31.60
29.39
27.51
26.26
25.48
24.66
23.29
21.05
18.03
14.61
11.25
8.26
5.71
3.44
1.27
-0.95
-3.17
-5.23
-6.92
-8.13
-8.97
-9.73
-10.84
-12.60
-15.05
-17.92
-20.81
-23.48
-26.10
-29.25
-33.71
-40.04
-48.04
-56.71
-64.22
-68.48
-67.62
-60.51
-46.99
-27.99
-5.36
18.39
40.50
58.54
70.89
77.09
77.85
74.66
69.27
63.17
57.31
52.16
47.86
44.46
41.90
39.98
38.32
36.38
33.62
29.74
24.82
19.35
14.01
9.49
6.23
4.22
3.12
2.39
1.57
0.57
-0.36
-0.76
-0.27
1.11
2.91
4.34
4.51
2.77
-1.08
-6.76
-13.55
-20.42
-26.25
-29.93
-30.63
-27.99
-22.20
-14.04
-4.71
4.54
12.68
19.11
23.66
26.41
27.51
27.03
25.08
21.92
18.06
14.16
10.84
8.39
6.73
5.53
4.47
3.39
2.38
1.63
1.26
1.28
1.46
1.47
1.05
0.04
-1.56
-3.57
-5.71
-7.77
-9.63
-11.36
-13.19
-15.50
-18.67
-22.95
-28.32
-34.42
-40.50
-45.51
-48.37
-48.24
-44.88
-38.70
-30.62
-21.76
-13.18
-5.66
0.34
4.64
7.30
8.57
8.88
8.70
8.43
8.28
8.30
8.39
8.39
8.16
7.60
6.60
5.15
3.38
1.61
0.23
-0.46
-0.41
0.08
0.44
0.09
-1.26
-3.54
-6.38
-9.29
-11.95
-14.28
-16.41
-18.68
-21.35
-24.62
-28.54
-32.97
-37.56
-41.75
-44.78
-45.85
-44.34
-40.06
-33.31
-24.88
-15.76
-6.88
1.13
8.03
13.79
18.51
22.23
24.92
26.48
26.97
26.59
25.63
24.46
23.33
22.35
21.45
20.54
19.54
18.55
17.74
17.31
17.30
17.52
17.54
16.91
15.30
12.72
9.38
5.60
1.59
-2.56
-6.80
-11.03
-15.06
-18.73
-22.10
-25.48
-29.28
-33.78
-38.80
-43.67
-47.41
-49.09
-48.17
-44.56
-38.60
-30.86
-21.97
-12.60
-3.41
4.96
11.98
17.39
21.13
23.44
24.63
25.00
24.72
23.84
22.39
20.47
18.27
16.06
14.03
12.23
10.56
8.92
7.24
5.58
4.09
2.84
1.75
0.56
-1.02
-3.15
-5.82
-8.83
-11.94
-14.94
-17.67
-20.10
-22.27
-24.36
-26.62
-29.40
-32.89
-37.11
-41.75
-46.27
-49.97
-52.16
-52.30
-50.09
-45.64
-39.47
-32.39
-25.28
-18.77
-12.94
-7.34
-1.27
5.78
13.77
22.00
29.42
35.04
38.40
39.66
39.49
38.62
37.61
36.58
35.38
33.76
31.64
29.19
26.77
24.74
23.23
22.14
21.08
19.58
17.25
13.90
9.65
4.83
-0.12
-4.82
-9.10
-13.09
-17.15
-21.73
-27.22
-33.81
-41.40
-49.50
-57.29
-63.61
-67.18
-66.91
-62.19
-53.21
-40.96
-26.94
-12.68
0.65
12.42
22.58
31.30
38.77
45.00
49.85
53.15
54.87
55.15
54.27
52.61
50.45
48.01
45.46
43.01
40.88
39.31
38.35
37.75
36.99
35.47
32.79
29.00
24.60
20.33
16.75
13.97
11.56
8.82
5.13
0.26
-5.49
-11.57
-17.43
-22.77
-27.62
-32.27
-37.07
-42.32
-48.25
-54.90
-62.09
-69.20
-75.13
-78.42
-77.63
-71.84
-61.18
-46.89
-30.99
-15.55
-2.01
9.15
18.38
26.43
33.84
40.66
46.45
50.65
52.94
53.39
52.42
50.50
48.02
45.21
42.20
39.21
36.57
34.64
33.70
33.84
34.90
36.46
37.98
38.89
38.64
36.90
33.58
28.91
23.42
17.76
12.43
7.63
3.21
-1.19
-5.88
-10.80
-15.55
-19.56
-22.46
-24.31
-25.62
-27.17
-29.68
-33.62
-39.09
-45.95
-53.81
-61.95
-69.29
-74.31
-75.41
-71.40
-62.04
-48.34
-32.34
-16.40
-2.45
8.57
16.84
23.28
28.93
34.45
39.88
44.77
48.49
50.59
51.02
50.12
48.44
46.57
44.91
43.62
42.64
41.84
41.13
40.49
39.98
39.61
39.21
38.49
37.14
34.94
31.92
28.36
24.65
21.18
18.14
15.48
12.99
10.42
7.54
4.21
0.39
-3.84
-8.38
-13.08
-17.79
-22.38
-26.75
-30.82
-34.53
-37.96
-41.33
-45.02
-49.47
-54.92
-61.14
-67.35
-72.27
-74.49
-72.90
-67.05
-57.29
-44.66
-30.55
-16.31
-3.01
8.75
18.72
26.89
33.32
38.07
41.24
43.02
43.71
43.73
43.43
43.00
42.41
41.47
39.99
37.96
35.65
33.52
32.04
31.45
31.62
32.10
32.32
31.80
30.38
28.10
25.23
22.01
18.65
15.30
12.15
9.41
7.19
5.35
3.47
0.93
-2.83
-7.95
-14.12
-20.68
-27.00
-32.78
-38.23
-43.90
-50.43
-58.09
-66.54
-74.83
-81.57
-85.29
-84.81
-79.53
-69.69
-56.23
-40.64
-24.51
-9.11
4.80
17.04
27.69
36.88
44.56
50.51
54.45
56.31
56.26
54.72
52.18
49.10
45.82
42.54
39.47
36.76
34.56
32.96
31.95
31.36
30.82
29.86
28.07
25.28
21.62
17.49
13.35
9.46
5.85
2.24
-1.59
-5.72
-10.01
-14.13
-17.90
-21.37
-24.82
-28.66
-33.19
-38.43
-44.06
-49.41
-53.56
-55.57
-54.68
-50.60
-43.54
-34.25
-23.77
-13.20
-3.42
5.00
11.83
17.12
21.01
23.75
25.51
26.51
26.91
26.82
26.33
25.47
24.20
22.60
20.71
18.69
16.75
15.04
13.67
12.64
11.85
11.16
10.37
9.26
7.63
5.36
2.44
-0.96
-4.62
-8.31
-11.91
-15.43
-18.93
-22.45
-26.02
-29.75
-33.83
-38.50
-43.85
-49.56
-54.79
-58.30
-58.84
-55.68
-48.82
-39.05
-27.63
-15.86
-4.73
5.17
13.57
20.43
25.76
29.68
32.32
33.87
34.53
34.44
33.72
32.47
30.83
29.02
27.22
25.62
24.26
23.13
22.16
21.27
20.49
19.80
19.22
18.68
18.05
17.15
15.79
13.78
11.02
7.50
3.33
-1.24
-5.90
-10.29
-14.12
-17.32
-20.04
-22.68
-25.76
-29.78
-34.97
-41.11
-47.47
-52.97
-56.52
-57.28
-54.94
-49.67
-42.08
-32.87
-22.73
-12.30
-2.15
7.10
15.01
21.30
26.04
29.53
32.16
34.10
35.34
35.74
35.20
33.86
32.05
30.12
28.29
26.58
24.85
23.06
21.29
19.77
18.68
18.02
17.53
16.82
15.54
13.55
10.88
7.82
4.60
1.40
-1.79
-5.13
-8.83
-13.01
-17.59
-22.28
-26.64
-30.33
-33.29
-35.91
-38.87
-42.99
-48.78
-56.08
-64.01
-71.07
-75.60
-76.32
-72.71
-65.20
-54.97
-43.57
-32.46
-22.55
-14.10
-6.76
0.08
6.85
13.49
19.36
23.48
24.98
23.57
19.80
15.12
11.59
11.45
16.61
28.21
46.08
68.46
92.03
112.69
126.80
132.47
130.21
122.32
111.48
99.24
85.31
68.28
47.00
21.90
-4.74
-29.79
-50.67
-66.35
-77.46
-85.24
-90.68
-93.99
-94.86
-93.22
-89.66
-85.42
-81.90
-80.05
-79.97
-80.95
-81.69
-80.74
-76.83
-69.28
-58.09
-44.05
-28.50
-12.97
1.20
13.19
22.78
30.31
36.38
41.64
46.47
50.91
54.67
57.40
58.79
58.86
57.80
55.86
53.11
49.33
44.08
36.94
27.79
16.85
4.62
-8.33
-21.43
-34.15
-45.88
-55.87
-63.36
-67.81
-69.09
-67.60
-64.06
-59.12
-53.18
-46.32
-38.59
-30.39
-22.71
-16.95
-14.51
-16.13
-21.50
-29.21
-37.22
-43.44
-46.44
-45.71
-41.56
-34.89
-26.65
-17.69
-8.60
0.17
8.17
14.85
19.59
21.78
21.01
17.27
11.25
4.45
-0.90
-2.27
2.44
14.19
32.50
55.44
80.22
103.79
123.31
136.57
142.15
139.67
129.93
114.85
97.17
79.80
65.04
54.03
46.71
42.26
39.64
38.06
37.13
36.65
36.27
35.40
33.24
29.06
22.55
14.07
4.55
-4.68
-12.38
-17.69
-20.20
-20.00
-17.44
-13.13
-7.81
-2.31
2.57
6.25
8.46
9.34
9.28
8.73
8.05
7.41
6.77
5.91
4.58
2.54
-0.35
-4.09
-8.53
-13.36
-18.29
-23.00
-27.28
-30.96
-33.91
-36.13
-37.73
-39.04
-40.40
-42.09
-44.17
-46.51
-48.91
-51.21
-53.44
-55.69
-58.05
-60.57
-63.27
-66.20
-69.49
-73.25
-77.37
-81.35
-84.39
-85.54
-84.03
-79.64
-72.66
-63.79
-53.82
-43.39
-32.89
-22.46
-12.20
-2.21
7.41
16.54
25.03
32.72
39.45
45.00
49.18
51.87
53.05
52.86
51.56
49.54
47.27
45.17
43.55
42.49
41.82
41.10
39.81
37.52
34.00
29.25
23.45
16.94
10.07
3.24
-3.22
-9.04
-14.18
-18.80
-23.30
-28.22
-33.99
-40.76
-48.21
-55.52
-61.66
-65.57
-66.61
-64.59
-59.85
-53.04
-44.88
-35.99
-26.90
-18.02
-9.74
-2.44
3.61
8.23
11.43
13.31
13.99
13.46
11.57
8.12
2.92
-4.05
-12.55
-22.16
-32.35
-42.55
-52.15
-60.48
-66.78
-70.29
-70.57
-67.83
-63.14
-58.19
-54.69
-53.51
-54.11
-54.53
-51.98
-43.87
-28.69
-6.53
21.05
51.68
82.91
112.74
139.89
163.61
183.46
199.13
210.28
216.43
217.00
211.36
199.24
181.20
158.88
135.03
112.91
95.39
83.95
78.11
75.45
72.38
65.38
52.09
32.11
7.01
-20.24
-46.22
-67.95
-83.49
-92.07
-93.97
-90.26
-82.44
-72.28
-61.52
-51.46
-42.71
-35.08
-27.93
-20.70
-13.41
-6.67
-1.48
1.39
1.60
-0.81
-5.74
-13.30
-23.81
-37.38
-53.52
-70.92
-87.64
-101.60
-111.12
-115.22
-113.60
-106.44
-94.27
-77.91
-58.66
-38.20
-18.00
1.55
21.98
46.51
78.58
119.56
167.02
214.48
253.33
275.98
278.64
262.34
231.61
192.25
149.25
106.32
66.62
33.48
10.22
-1.11
-1.28
5.87
14.73
20.29
20.09
14.72
6.80
-1.12
-8.11
-15.12
-24.15
-36.90
-53.80
-73.81
-94.81
-114.45
-130.71
-142.49
-149.73
-153.27
-154.50
-154.72
-154.62
-153.99
-152.02
-147.82
-140.88
-131.24
-119.17
-104.91
-88.45
-69.76
-49.27
-28.16
-8.32
8.27
20.27
27.51
30.95
32.27
33.00
34.00
35.27
36.26
36.33
35.22
33.22
30.95
29.01
27.67
26.76
25.77
24.22
21.87
18.84
15.49
12.29
9.60
7.59
6.22
5.30
4.52
3.52
1.93
-0.68
-4.69
-10.31
-17.31
-24.95
-31.93
-36.67
-37.77
-34.46
-26.84
-15.87
-3.02
10.13
22.24
32.39
40.09
45.14
47.56
47.49
45.27
41.38
36.55
31.56
27.11
23.61
21.11
19.34
17.94
16.70
15.62
14.90
14.72
15.15
15.99
16.91
17.54
17.60
16.94
15.60
13.65
11.29
8.68
5.94
3.15
0.29
-2.66
-5.71
-8.81
-11.96
-15.25
-18.98
-23.45
-28.80
-34.81
-40.76
-45.70
-48.74
-49.30
-47.33
-43.16
-37.32
-30.32
-22.61
-14.58
-6.62
0.89
7.68
13.64
18.84
23.42
27.44
30.82
33.42
35.10
35.78
35.53
34.48
32.77
30.61
28.24
25.86
23.66
21.73
20.02
18.37
16.61
14.60
12.24
9.52
6.49
3.25
-0.04
-3.27
-6.33
-9.25
-12.16
-15.26
-18.71
-22.62
-27.01
-31.76
-36.63
-41.21
-44.94
-47.20
-47.45
-45.38
-41.08
-34.97
-27.74
-20.15
-12.80
-6.02
0.23
6.23
12.34
18.70
25.09
30.91
35.33
37.76
38.08
36.79
34.76
32.84
31.47
30.66
30.12
29.58
28.96
28.26
27.48
26.39
24.71
22.22
18.99
15.36
11.78
8.58
5.76
3.07
0.07
-3.54
-7.93
-13.01
-18.60
-24.53
-30.66
-36.92
-43.15
-49.16
-54.51
-58.64
-60.92
-60.88
-58.34
-53.54
-47.07
-39.69
-32.15
-25.00
-18.52
-12.79
-7.77
-3.35
0.58
4.19
7.62
10.98
14.34
17.56
20.38
22.42
23.36
23.10
21.78
19.87
17.92
16.45
15.84
16.20
17.40
19.15
21.04
22.57
23.32
22.93
21.29
18.47
14.74
10.43
5.87
1.30
-3.06
-7.07
-10.56
-13.42
-15.58
-17.05
-17.86
-18.02
-17.46
-16.02
-13.52
-9.90
-5.28
-0.04
5.35
10.38
14.70
18.19
20.88
22.88
24.30
25.13
25.34
24.90
23.86
22.26
20.22
17.83
15.27
12.78
10.61
8.96
7.83
6.98
6.02
4.58
2.49
-0.19
-3.21
-6.27
-9.21
-12.05
-15.12
-19.00
-24.43
-32.17
-42.63
-55.52
-69.75
-83.42
-94.26
-100.25
-100.17
-94.03
-83.00
-69.02
-54.12
-39.92
-27.28
-16.39
-7.11
0.72
7.08
11.89
15.23
17.53
19.54
22.01
25.32
29.30
33.24
36.31
37.92
37.95
36.75
34.88
32.82
30.86
28.98
27.06
24.87
22.27
19.13
15.40
11.14
6.51
1.62
-3.44
-8.79
-14.67
-21.35
-28.90
-36.96
-44.73
-51.13
-55.17
-56.32
-54.65
-50.72
-45.24
-38.66
-31.07
-22.39
-12.68
-2.40
7.58
16.36
23.49
29.09
33.87
38.56
43.54
48.64
53.33
56.99
59.19
59.65
58.20
54.62
48.85
41.16
32.40
23.86
16.90
12.41
10.52
10.53
11.37
12.03
11.96
11.11
9.58
7.38
4.13
-0.73
-7.69
-16.77
-27.43
-38.59
-48.97
-57.36
-62.86
-65.00
-63.63
-58.93
-51.26
-41.13
-29.08
-15.70
-1.50
12.94
27.02
40.00
51.09
59.60
65.04
67.26
66.37
62.72
56.76
49.06
40.31
31.33
23.00
16.09
11.15
8.40
7.69
8.63
10.69
13.31
15.98
18.26
19.72
20.00
18.86
16.20
12.21
7.19
1.56
-4.32
-10.24
-16.14
-22.01
-27.88
-33.69
-39.29
-44.46
-48.87
-52.07
-53.53
-52.75
-49.42
-43.62
-35.82
-26.77
-17.37
-8.39
-0.40
6.29
11.64
15.75
18.89
21.35
23.38
25.08
26.40
27.19
27.25
26.59
25.35
23.77
22.10
20.51
19.03
17.65
16.39
15.28
14.38
13.66
12.98
12.04
10.54
8.27
5.24
1.70
-1.96
-5.38
-8.33
-10.77
-12.79
-14.55
-16.24
-18.05
-20.22
-23.07
-26.86
-31.68
-37.22
-42.76
-47.25
-49.66
-49.26
-45.91
-40.02
-32.38
-23.82
-15.06
-6.55
1.45
8.77
15.26
20.78
25.15
28.23
29.89
30.13
29.10
27.19
24.94
22.88
21.28
20.11
19.07
17.85
16.32
14.65
13.14
12.03
11.33
10.82
10.19
9.24
7.96
6.51
5.07
3.68
2.17
0.31
-2.08
-5.00
-8.25
-11.47
-14.40
-16.88
-19.04
-21.16
-23.59
-26.68
-30.63
-35.36
-40.45
-45.10
-48.30
-49.10
-46.94
-41.86
-34.59
-26.15
-17.58
-9.52
-2.20
4.45
10.52
15.96
20.54
24.04
26.37
27.69
28.19
28.07
27.38
26.13
24.36
22.26
20.18
18.54
17.66
17.59
18.15
18.97
19.61
19.72
19.09
17.68
15.57
13.02
10.32
7.81
5.69
4.03
2.62
1.09
-0.94
-3.72
-7.11
-10.77
-14.21
-17.07
-19.34
-21.33
-23.54
-26.47
-30.40
-35.28
-40.67
-45.71
-49.33
-50.47
-48.48
-43.32
-35.68
-26.68
-17.52
-9.07
-1.64
4.87
10.72
16.00
20.66
24.50
27.32
29.10
29.93
29.96
29.30
28.04
26.34
24.43
22.62
21.15
20.18
19.71
19.65
19.85
20.13
20.29
20.07
19.26
17.69
15.41
12.67
9.84
7.23
4.94
2.81
0.50
-2.31
-5.76
-9.65
-13.65
-17.34
-20.45
-22.90
-24.82
-26.47
-28.11
-30.02
-32.44
-35.59
-39.49
-43.73
-47.44
-49.42
-48.54
-44.25
-36.87
-27.51
-17.64
-8.48
-0.64
5.90
11.55
16.64
21.21
25.06
27.88
29.58
30.32
30.45
30.27
29.93
29.36
28.34
26.73
24.63
22.35
20.31
18.89
18.20
18.08
18.20
18.16
17.68
16.55
14.71
12.25
9.35
6.36
3.69
1.68
0.40
-0.44
-1.42
-3.14
-5.94
-9.68
-13.82
-17.71
-20.90
-23.27
-25.07
-26.69
-28.51
-30.75
-33.58
-36.99
-40.79
-44.44
-47.06
-47.57
-45.12
-39.53
-31.38
-21.84
-12.23
-3.50
3.92
10.09
15.26
19.60
23.08
25.64
27.24
28.00
28.15
27.92
27.39
26.57
25.45
24.05
22.52
21.06
19.87
19.05
18.53
18.15
17.67
16.92
15.83
14.45
12.92
11.41
10.02
8.81
7.76
6.78
5.75
4.52
2.96
1.00
-1.34
-3.95
-6.66
-9.30
-11.80
-14.17
-16.52
-18.99
-21.83
-25.30
-29.61
-34.81
-40.56
-46.14
-50.39
-52.11
-50.48
-45.32
-37.29
-27.61
-17.60
-8.35
-0.43
6.00
11.10
15.05
17.92
19.80
20.86
21.35
21.52
21.45
20.95
19.73
17.59
14.61
11.23
8.12
5.73
4.15
2.89
1.25
-1.24
-4.64
-8.63
-12.53
-15.64
-17.47
-17.98
-17.70
-17.64
-18.77
-22.20
-29.06
-39.69
-53.30
-68.08
-81.58
-91.91
-98.14
-99.96
-98.17
-94.48
-90.23
-86.03
-81.94
-77.57
-72.93
-67.85
-61.06
-51.17
-37.14
-17.17
10.86
48.23
93.87
142.65
186.17
215.52
223.38
206.54
169.07
120.99
74.19
42.53
35.05
42.60
52.62
58.14
52.87
33.36
-1.51
-51.45
-114.52
-186.76
-251.59
-289.13
-286.17
-244.91
-180.45
-111.78
-53.24
-10.89
15.94
31.55
40.21
43.76
41.89
34.94
25.10
15.60
9.15
6.47
6.68
7.34
5.48
-1.07
-12.16
-25.60
-38.50
-48.71
-55.64
-59.75
-62.85
-66.89
-73.08
-80.96
-88.60
-93.49
-93.57
-88.41
-77.28
-60.79
-40.18
-16.76
8.56
35.31
63.07
91.16
117.00
139.26
156.67
168.39
174.21
174.62
170.61
163.39
154.13
143.75
133.22
122.96
113.12
103.76
94.89
86.50
78.57
71.02
63.81
57.17
51.08
45.42
40.16
35.26
30.66
26.34
22.32
18.59
15.28
12.38
9.75
7.38
5.21
3.24
1.48
-0.05
-1.28
-2.18
-2.37
-2.31
-2.18
-2.06
-1.92
-1.69
-1.19
-0.30
0.98
2.55
4.09
5.42
6.43
7.23
8.05
9.24
11.07
13.47
16.11
18.35
19.68
19.80
19.11
17.81
16.51
15.71
15.56
15.76
15.67
14.81
12.99
10.55
8.16
6.71
6.90
9.11
13.36
19.15
25.39
30.30
31.80
28.10
18.71
4.82
-10.82
-24.89
-34.79
-39.64
-40.53
-39.79
-39.84
-41.96
-46.00
-50.61
-54.15
-55.49
-54.47
-51.63
-47.81
-43.67
-39.45
-35.00
-30.24
-25.37
-20.92
-17.50
-15.49
-14.75
-14.66
-14.38
-13.24
-11.02
-8.03
-4.94
-2.40
-0.77
-0.01
0.30
0.70
1.62
3.16
5.20
7.38
9.31
10.81
11.86
12.70
13.59
14.73
16.23
18.04
20.00
21.93
23.76
25.45
27.09
28.73
30.34
31.92
33.39
34.55
35.24
35.30
34.57
33.00
30.61
27.33
23.27
18.57
13.33
7.71
1.87
-4.00
-9.72
-14.67
-19.08
-22.82
-25.81
-28.03
-29.48
-30.22
-30.29
-29.80
-28.83
-27.58
-26.36
-25.04
-23.67
-22.31
-21.00
-19.76
-18.62
-17.54
-16.61
-15.79
-15.01
-14.31
-13.69
-13.16
-12.73
-12.38
-12.12
-11.97
-11.95
-11.99
-12.14
-12.39
-12.72
-13.16
-13.69
-14.26
-14.94
-15.72
-16.57
-17.52
-18.56
-19.71
-20.97
-22.32
-23.71
-25.13
-26.52
-27.75
-28.65
-29.05
-28.73
-27.50
-25.55
-22.43
-18.06
-12.53
-5.99
1.19
8.55
15.56
21.73
26.67
30.20
32.15
32.52
31.44
29.04
25.45
20.84
15.43
9.55
3.69
-1.72
-6.23
-9.46
-11.33
-12.04
-12.04
-11.81
-11.81
-12.22
-13.13
-14.33
-15.57
-16.82
-18.33
-20.51
-23.72
-27.97
-32.74
-37.44
-41.15
-43.22
-43.66
-43.29
-43.45
-45.47
-50.10
-57.23
-66.40
-76.59
-86.72
-96.35
-105.82
-116.00
-128.13
-143.56
-163.52
-188.97
-218.69
-248.98
-274.18
-288.33
-287.38
-270.96
-242.50
-204.90
-165.31
-130.16
-103.00
-84.19
-72.03
-64.42
-60.03
-58.23
-58.60
-60.78
-63.47
-65.21
-65.18
-63.57
-61.36
-59.75
-59.39
-60.20
-61.73
-62.85
-62.44
-59.81
-55.03
-48.65
-41.48
-34.11
-26.84
-19.89
-13.00
-5.71
2.37
11.41
21.38
31.95
42.66
53.01
62.47
70.92
78.65
86.37
94.92
104.97
116.71
129.74
143.06
155.50
166.31
175.25
182.79
189.68
196.60
203.79
211.30
219.00
226.36
231.93
233.02
226.14
208.25
178.43
138.67
93.35
47.48
4.55
-34.53
-70.92
-106.11
-140.24
-171.51
-196.99
-214.36
-222.98
-224.03
-219.60
-211.37
-199.88
-184.84
-165.91
-143.40
-119.05
-95.55
-75.69
-61.31
-52.49
-47.51
-43.57
-38.05
-29.69
-19.20
-8.83
-1.26
1.90
1.13
-0.93
-0.48
5.73
18.85
37.13
56.60
72.96
83.40
88.04
89.78
93.08
101.99
118.79
143.74
175.01
208.79
239.22
258.97
261.23
243.16
208.62
168.48
136.71
123.88
131.42
149.81
162.43
152.82
111.92
41.58
-46.86
-137.57
-215.90
-272.17
-302.64
-308.48
-293.94
-264.89
-227.46
-187.39
-149.61
-117.97
-94.84
-80.87
-74.83
-73.49
-72.61
-68.32
-58.54
-43.71
-26.28
-9.26
5.10
16.52
26.47
37.28
51.00
68.47
89.10
111.33
133.45
154.41
174.26
194.26
216.19
241.45
269.92
299.43
325.99
345.07
353.11
348.91
334.05
312.23
288.00
265.28
246.63
233.00
224.10
218.90
215.82
212.91
207.94
198.70
183.38
161.04
132.03
98.19
62.81
29.91
3.10
-15.79
-27.35
-34.24
-39.99
-47.14
-56.25
-66.01
-74.52
-80.90
-86.01
-91.80
-99.80
-109.80
-119.62
-125.84
-126.03
-119.75
-108.50
-94.77
-81.31
-70.88
-66.30
-69.89
-81.85
-99.54
-117.55
-129.31
-129.84
-117.71
-95.54
-68.39
-41.04
-15.03
10.55
37.39
65.97
94.73
120.74
141.06
154.21
160.91
167.03
178.97
201.01
232.92
269.96
305.02
331.65
346.44
350.13
352.56
363.10
386.26
419.46
455.37
486.57
509.05
523.00
531.44
547.47
581.02
634.70
702.41
773.16
836.75
887.39
923.97
948.32
975.24
1015.94
1073.10
1139.20
1201.24
1248.00
1274.39
1281.38
1197.28
983.33
641.96
223.00
-201.88
-574.41
-866.53
-1076.09
-1215.01
-1300.26
-1336.47
-1328.34
-1283.61
-1215.37
-1138.34
-1063.92
-999.04
-946.74
-908.60
-876.87
-846.02
-814.74
-786.39
-764.30
-747.78
-731.43
-708.01
-672.62
-619.35
-548.72
-464.81
-380.19
-309.27
-262.60
-243.79
-249.88
-274.06
-306.05
-338.25
-367.66
-395.95
-425.44
-455.78
-482.37
-498.28
-497.79
-478.29
-442.41
-396.58
-348.53
-303.57
-263.36
-226.61
-191.62
-158.14
-127.53
-101.63
-81.11
-64.80
-49.70
-32.60
-11.48
13.17
38.35
60.08
75.24
83.13
85.64
86.48
89.26
97.03
110.25
126.86
143.46
157.03
166.28
171.81
175.50
179.17
186.15
198.48
216.51
238.97
263.54
287.60
308.80
325.28
335.91
344.51
355.63
372.74
396.51
424.65
453.30
478.79
498.69
512.07
524.13
540.05
562.97
592.79
627.29
664.51
704.26
747.93
765.63
736.78
653.81
526.91
376.92
222.36
72.43
-70.65
-205.74
-329.18
-429.86
-498.08
-530.39
-531.91
-513.77
-487.85
-462.27
-440.32
-422.19
-403.38
-380.62
-353.31
-323.40
-293.87
-266.88
-242.87
-221.14
-201.28
-181.25
-160.13
-138.29
-117.43
-99.09
-84.09
-72.06
-62.00
-53.50
-45.63
-38.11
-31.04
-24.56
-18.40
-11.89
-4.21
5.00
15.04
25.15
34.62
43.20
51.29
59.75
69.53
81.37
95.65
111.81
128.86
145.47
160.09
171.14
177.28
177.41
170.57
159.09
144.49
128.28
111.66
95.41
79.83
64.91
50.48
36.34
22.58
9.03
-3.97
-15.76
-25.45
-32.21
-35.45
-35.02
-31.24
-24.77
-16.86
-8.64
-1.45
4.00
7.84
10.91
14.06
17.76
22.08
26.37
30.16
32.86
34.45
35.49
36.77
38.62
40.67
42.15
41.90
39.16
32.56
21.59
7.00
-9.44
-25.83
-40.81
-53.37
-63.27
-70.42
-77.96
-88.10
-100.59
-113.07
-123.13
-129.96
-133.52
-135.55
-137.53
-146.82
-168.17
-200.63
-238.39
-275.22
-307.86
-334.46
-356.73
-375.77
-402.02
-441.66
-492.17
-543.76
-586.53
-616.19
-631.50
-637.46
-638.53
-651.02
-685.32
-739.80
-802.58
-860.61
-907.21
-938.78
-959.16
-887.18
-684.51
-377.19
-41.08
255.34
483.05
626.51
716.27
771.24
802.02
800.88
761.82
690.98
602.07
514.99
443.40
395.89
369.30
358.26
347.25
326.07
294.48
260.43
232.96
215.68
209.58
209.92
213.59
212.30
201.34
181.84
159.76
141.70
130.64
127.82
127.57
130.07
132.38
132.86
131.88
131.99
135.72
143.58
155.14
168.19
181.59
193.13
201.77
207.09
209.94
211.43
211.98
211.58
209.42
204.82
196.14
186.40
176.47
166.92
158.07
149.97
142.45
135.30
128.50
121.86
115.45
108.83
102.00
95.11
88.41
82.06
76.10
70.61
65.52
60.89
56.48
52.35
48.70
45.63
43.01
40.44
37.42
33.53
28.79
23.39
18.13
13.88
11.12
9.55
7.95
4.51
-2.44
-13.80
-29.41
-47.89
-67.40
-86.54
-105.12
-124.35
-146.35
-173.11
-205.35
-241.98
-280.46
-317.66
-351.27
-380.84
-407.82
-435.11
-466.02
-503.48
-549.10
-602.21
-659.12
-712.84
-753.97
-772.95
-763.47
-725.43
-666.15
-598.24
-535.17
-486.16
-452.99
-430.54
-410.27
-384.88
-351.55
-312.19
-271.20
-232.52
-197.70
-166.07
-136.36
-108.36
-83.68
-64.62
-52.65
-47.09
-45.26
-43.69
-39.58
-32.14
-22.71
-13.90
-8.23
-6.98
-9.59
-14.10
-18.01
-19.38
-17.61
-13.37
-8.24
-3.79
-0.87
0.66
1.76
3.72
7.59
14.28
23.90
35.84
49.11
62.86
76.70
90.63
104.66
118.63
132.44
145.63
157.33
166.55
172.66
175.59
175.80
174.04
170.98
168.21
166.74
166.53
166.71
166.31
164.77
162.16
158.77
154.90
153.82
157.64
166.32
177.78
189.73
201.04
211.99
223.46
236.13
256.41
288.17
330.47
377.85
424.00
464.88
499.42
528.46
553.51
586.31
634.90
699.15
770.45
837.11
890.33
926.75
947.88
958.39
977.16
1017.61
1080.97
1156.09
1227.43
1283.53
1319.94
1337.56
1256.59
1038.84
700.77
308.26
-66.22
-378.79
-617.57
-789.53
-908.52
-988.99
-1030.15
-1032.61
-1003.55
-957.19
-908.57
-867.19
-836.11
-814.38
-799.65
-780.09
-747.01
-699.49
-644.58
-591.77
-547.56
-514.21
-491.13
-476.67
-462.66
-443.19
-416.99
-387.69
-360.45
-338.57
-322.75
-311.91
-304.16
-294.25
-280.36
-262.33
-242.32
-223.27
-207.29
-195.18
-186.93
-182.04
-178.76
-175.51
-171.17
-165.60
-159.19
-152.42
-145.78
-139.79
-134.92
-131.38
-128.87
-126.33
-122.56
-116.61
-108.12
-97.50
-85.70
-73.73
-62.15
-50.71
-38.25
-23.49
-5.62
15.13
37.40
59.17
78.63
94.80
107.75
118.54
128.49
138.77
150.54
165.23
184.18
207.45
232.43
253.64
264.53
260.78
243.59
220.41
202.50
200.05
217.19
250.12
289.27
324.22
348.09
358.89
357.47
344.45
318.81
279.27
227.48
170.15
117.94
81.49
67.00
73.63
94.52
120.82
145.89
167.30
185.77
202.27
215.69
222.88
220.60
208.04
188.12
166.48
149.24
140.38
140.38
146.53
154.69
161.10
163.62
161.86
156.43
148.01
136.72
122.20
104.14
82.85
59.88
37.79
19.60
7.68
2.73
3.53
7.30
10.76
11.35
8.05
1.40
-6.89
-14.63
-20.01
-22.03
-20.69
-16.66
-11.28
-6.22
-3.52
-5.06
-11.79
-23.05
-36.30
-47.92
-54.55
-54.79
-49.84
-43.02
-38.11
-37.37
-40.65
-45.67
-49.59
-50.53
-48.43
-44.52
-40.43
-37.16
-34.82
-32.94
-31.01
-29.21
-28.31
-29.15
-31.47
-34.13
-35.31
-33.19
-26.72
-16.03
-2.67
11.40
24.27
35.92
46.92
57.98
69.32
80.54
90.92
99.43
105.84
110.29
114.99
121.73
131.37
143.58
157.30
171.31
184.01
194.83
203.08
210.25
216.83
222.07
224.00
220.37
209.95
192.46
170.42
131.77
72.14
-5.46
-90.32
-169.48
-233.91
-276.48
-303.71
-322.71
-338.89
-352.80
-363.76
-369.93
-369.04
-359.78
-342.55
-320.54
-297.33
-276.98
-260.99
-250.44
-245.70
-246.80
-253.27
-263.59
-275.50
-284.74
-287.13
-275.56
-247.75
-207.73
-164.40
-127.03
-101.01
-87.16
-82.31
-82.37
-82.89
-81.86
-78.41
-72.13
-62.63
-49.71
-33.71
-15.07
5.88
27.85
50.16
73.09
97.50
124.11
152.61
181.23
207.17
227.50
240.12
244.46
241.83
235.02
227.45
221.97
219.84
220.20
220.25
216.08
203.91
181.39
148.58
108.07
64.40
22.85
-12.04
-37.51
-53.19
-60.86
-63.65
-64.80
-66.59
-69.78
-73.74
-77.24
-79.22
-79.38
-78.07
-75.92
-73.32
-70.20
-66.16
-60.84
-54.38
-47.52
-41.54
-37.89
-37.75
-41.65
-49.52
-60.72
-74.39
-89.54
-105.03
-119.38
-130.77
-137.50
-138.85
-135.80
-131.02
-127.87
-128.71
-133.53
-139.64
-142.76
-138.78
-125.45
-102.96
-73.45
-40.01
-5.85
25.96
52.59
71.87
83.05
87.33
87.90
88.81
93.27
102.50
115.67
131.10
147.85
166.20
186.55
207.73
226.09
236.07
232.37
212.34
177.61
133.87
88.91
49.35
18.74
-2.46
-15.70
-22.66
-24.91
-24.19
-22.44
-21.20
-21.42
-22.64
-22.59
-18.12
-6.67
11.39
32.41
50.91
62.47
64.94
58.83
46.72
31.06
16.19
5.97
1.26
-2.42
-6.81
-8.92
-2.23
22.18
69.67
139.21
221.38
300.62
360.63
390.91
389.78
364.20
326.19
287.51
255.94
233.76
219.56
211.31
208.67
212.20
221.67
234.87
247.12
252.81
247.20
228.04
196.34
155.99
111.82
67.77
26.08
-13.03
-50.39
-87.11
-123.62
-159.24
-192.22
-220.39
-241.99
-256.09
-263.00
-264.06
-261.48
-257.88
-255.67
-256.31
-260.09
-266.21
-273.38
-280.54
-287.45
-295.01
-305.58
-322.02
-347.04
-382.65
-429.60
-486.70
-550.06
-612.74
-665.76
-701.47
-715.37
-707.84
-683.59
-649.34
-611.07
-571.95
-532.19
-490.36
-447.08
-404.11
-363.82
-326.94
-291.40
-253.16
-208.04
-153.23
-87.94
-15.63
58.49
127.87
185.81
226.45
245.54
241.56
216.90
192.20
186.15
210.95
264.83
333.46
400.25
454.51
493.45
519.55
536.70
544.71
543.16
530.19
504.35
467.79
425.57
383.96
347.99
319.82
296.79
276.35
255.16
228.89
196.10
158.17
118.14
78.92
41.76
5.08
-33.28
-75.50
-125.27
-183.06
-245.99
-308.72
-365.30
-411.33
-445.18
-466.72
-455.79
-402.12
-309.17
-194.57
-79.79
20.81
102.08
164.67
212.01
246.25
265.58
270.66
263.40
246.54
223.98
199.35
175.18
153.09
131.11
103.70
69.75
30.47
-12.10
-54.50
-93.29
-125.77
-150.00
-167.93
-183.22
-196.98
-194.90
-168.01
-117.05
-52.23
5.08
51.45
85.13
103.33
105.89
91.74
59.54
11.02
-47.75
-101.10
-130.41
-126.71
-94.96
-49.74
-6.99
21.90
33.96
33.48
28.13
24.31
22.57
20.56
16.38
9.90
1.92
-6.16
-12.83
-16.81
-17.83
-17.94
-19.03
-21.41
-24.45
-25.73
-22.96
-14.21
1.59
24.07
50.97
80.04
109.04
137.47
164.93
189.09
205.45
208.48
194.22
162.61
118.82
71.74
30.85
2.40
-12.85
-18.25
-18.97
-19.10
-21.14
-26.15
-34.99
-48.46
-66.99
-89.60
-112.74
-130.46
-136.35
-126.27
-100.74
-65.38
-28.39
2.76
23.54
33.86
36.98
37.23
37.90
39.98
42.70
45.47
48.88
54.09
62.24
73.53
87.17
101.86
116.40
126.77
127.08
115.22
92.54
63.09
31.56
1.46
-25.71
-49.85
-71.51
-90.48
-105.85
-117.01
-124.04
-127.85
-129.92
-131.89
-135.03
-140.04
-146.19
-152.02
-156.23
-158.00
-157.75
-155.66
-152.33
-148.46
-144.70
-140.92
-136.79
-132.19
-127.29
-122.61
-118.72
-116.21
-115.58
-117.11
-120.24
-124.28
-128.60
-132.64
-135.92
-137.83
-137.60
-134.02
-129.31
-124.04
-118.40
-112.45
-106.22
-99.81
-93.28
-86.81
-80.66
-75.13
-69.96
-65.01
-60.22
-55.52
-50.91
-46.41
-42.11
-38.18
-34.82
-31.78
-28.91
-26.07
-23.12
-20.02
-16.75
-13.44
-10.26
-7.44
-4.86
-2.36
0.28
3.31
6.88
10.99
15.47
20.00
24.28
28.31
32.30
36.69
41.96
48.42
56.09
64.59
73.37
81.85
89.87
97.67
105.93
115.43
126.75
139.98
154.70
170.18
185.69
200.83
215.66
230.66
246.53
264.17
284.46
308.01
334.57
362.45
388.35
407.86
416.85
412.93
396.45
370.36
339.01
306.48
275.40
246.63
219.92
194.90
171.65
150.63
132.24
116.29
101.96
88.20
74.34
60.42
47.11
35.38
25.89
18.68
13.18
8.51
3.89
-1.08
-6.36
-11.61
-16.42
-20.48
-23.70
-26.13
-28.02
-29.64
-31.22
-32.86
-34.51
-35.96
-37.02
-37.58
-37.72
-37.60
-37.38
-37.17
-36.98
-36.84
-36.82
-37.07
-37.64
-38.44
-39.16
-39.41
-38.92
-37.63
-35.82
-33.95
-32.49
-31.71
-31.59
-31.85
-32.10
-32.01
-31.36
-30.14
-28.52
-26.73
-25.02
-23.54
-22.35
-21.47
-20.82
-20.38
-20.12
-19.95
-19.67
-19.08
-18.03
-16.55
-14.86
-13.31
-12.16
-11.50
-11.17
-10.93
-10.65
-10.35
-10.15
-10.08
-10.17
-10.29
-10.38
-10.35
-10.20
-10.01
-9.79
-9.47
-8.88
-7.83
-6.23
-4.10
-1.46
1.47
4.40
7.11
9.56
12.01
14.80
18.13
21.91
26.26
31.08
36.24
41.78
47.96
55.13
63.40
72.46
81.56
90.71
99.70
108.15
115.79
122.66
129.21
135.98
143.22
150.63
158.74
167.12
174.55
179.73
182.08
182.02
180.56
178.45
175.62
172.85
169.39
163.09
151.47
132.92
107.89
79.14
51.51
18.62
-18.99
-56.79
-89.31
-114.37
-134.37
-153.80
-175.72
-199.89
-223.54
-241.57
-251.11
-252.15
-246.66
-236.34
-220.90
-199.17
-170.85
-137.71
-102.18
-68.18
-39.30
-17.27
-1.27
11.38
23.25
34.79
44.61
50.68
50.35
41.80
25.24
3.78
-16.99
-30.30
-30.03
-12.52
22.74
72.24
129.06
184.56
230.45
260.68
272.60
267.07
247.87
220.44
190.18
161.35
136.49
116.61
101.59
90.66
82.65
76.22
69.93
62.66
53.90
43.98
34.01
25.34
19.11
15.74
14.75
15.05
15.29
14.28
11.36
6.33
-0.60
-9.23
-19.46
-31.48
-45.49
-61.58
-79.42
-98.14
-116.39
-132.54
-144.99
-152.43
-154.11
-149.76
-139.69
-124.58
-105.39
-83.21
-59.24
-34.69
-10.71
11.70
31.81
49.16
63.68
75.62
85.42
93.69
101.01
107.88
114.68
121.56
128.53
135.36
141.75
147.21
151.14
152.40
150.14
144.09
134.63
122.45
108.27
92.82
76.62
60.08
42.82
24.43
4.84
-15.68
-36.74
-58.01
-79.36
-100.78
-122.42
-145.93
-172.40
-201.67
-232.39
-262.71
-291.03
-316.24
-337.81
-355.83
-374.68
-397.54
-424.69
-453.67
-481.31
-505.43
-525.11
-540.35
-551.70
-567.81
-594.68
-632.77
-678.31
-726.88
-775.72
-822.82
-864.66
-895.86
-922.75
-948.43
-970.29
-982.35
-980.76
-967.21
-947.13
-926.39
-909.16
-913.13
-946.77
-1003.69
-1066.03
-1114.69
-1138.52
-1136.19
-1113.43
-978.84
-700.83
-315.99
90.54
441.40
702.15
874.24
975.39
1026.44
1045.34
1029.78
977.65
899.23
811.27
729.67
663.22
613.94
580.32
559.79
537.85
505.74
465.41
424.25
390.87
369.56
360.24
360.53
367.44
370.49
362.86
344.43
320.07
295.93
275.79
260.96
251.18
245.57
239.25
228.81
213.94
196.65
179.75
165.24
154.60
148.52
146.92
147.47
147.74
146.27
142.66
137.48
132.04
129.74
133.56
145.03
163.40
186.09
209.91
232.08
250.80
266.39
283.77
307.05
337.23
370.94
401.74
422.91
429.69
419.80
395.88
368.92
349.91
346.74
362.11
394.31
439.10
490.27
538.39
574.80
598.75
611.42
615.73
615.79
617.01
625.34
644.50
672.09
657.75
568.47
399.02
177.63
-52.81
-258.49
-424.21
-539.91
-621.94
-681.79
-716.88
-722.27
-696.20
-643.23
-572.76
-494.08
-416.25
-347.96
-293.27
-247.91
-206.67
-166.30
-127.50
-93.68
-68.09
-52.02
-45.57
-45.58
-44.92
-38.17
-23.37
-2.43
20.68
42.28
60.18
76.64
92.17
109.73
131.37
156.14
179.29
193.73
193.09
174.55
140.10
96.52
53.24
18.46
-3.57
-13.22
-13.99
-10.17
-5.35
-2.28
1.03
4.90
8.67
11.21
11.64
9.96
7.05
4.26
2.79
2.93
3.81
4.26
3.21
0.13
-4.70
-10.40
-15.83
-20.61
-24.79
-28.89
-33.19
-37.86
-42.91
-47.99
-52.40
-55.26
-56.26
-55.18
-51.88
-46.06
-37.53
-26.43
-13.19
1.63
17.35
31.91
43.67
52.07
57.66
61.22
63.08
63.25
61.57
57.98
49.00
32.53
9.69
-15.76
-40.05
-61.28
-79.22
-94.53
-108.14
-128.14
-160.17
-203.19
-250.40
-294.41
-330.92
-358.55
-377.56
-389.15
-406.58
-439.66
-487.94
-541.83
-591.04
-630.39
-659.57
-680.66
-696.47
-724.51
-776.93
-851.80
-935.19
-1012.51
-1076.16
-1124.91
-1160.37
-1089.46
-868.75
-530.65
-162.46
160.77
409.74
588.28
712.27
797.72
854.35
878.80
866.09
821.44
760.25
697.48
640.32
588.72
541.57
499.59
453.28
395.99
330.62
268.08
218.61
186.12
168.89
162.74
163.22
159.89
145.73
121.81
95.54
74.03
60.05
52.50
48.83
46.69
41.57
30.64
14.83
-2.29
-17.19
-27.66
-32.11
-29.34
-19.30
-5.13
7.72
14.47
13.29
6.22
-1.78
-5.49
-2.63
3.29
7.47
4.74
-5.98
-20.39
-30.83
-30.53
-17.49
4.44
27.71
45.22
53.25
53.02
48.56
43.77
40.14
36.57
30.81
21.36
8.68
-5.46
-18.38
-28.64
-36.68
-44.22
-52.75
-62.01
-69.28
-70.06
-60.18
-37.07
-1.88
40.78
84.44
123.07
152.69
172.11
182.53
181.95
170.33
148.34
117.53
80.77
42.35
7.47
-18.48
-30.91
-26.98
-5.61
31.21
78.31
128.03
171.70
201.57
212.95
205.33
182.49
151.75
121.10
97.01
82.97
79.00
82.12
87.75
90.77
86.61
72.67
48.24
14.52
-25.87
-69.81
-114.99
-160.53
-206.97
-255.01
-303.41
-348.14
-382.65
-400.29
-397.32
-374.96
-339.06
-298.08
-259.79
-228.57
-204.92
-186.63
-171.16
-157.19
-145.03
-134.83
-126.39
-118.78
-110.65
-100.80
-88.73
-75.20
-61.80
-50.74
-42.45
-36.78
-33.33
-31.52
-30.48
-28.84
-25.53
-18.67
-6.51
14.76
47.16
88.79
133.39
172.53
199.25
210.33
209.27
203.69
205.37
222.61
256.60
301.37
347.61
387.31
415.17
431.00
415.12
356.82
259.27
139.45
17.76
-91.46
-175.50
-238.55
-284.81
-317.89
-337.85
-345.05
-341.74
-331.02
-315.72
-297.22
-276.79
-254.08
-229.71
-202.82
-173.51
-143.00
-113.35
-86.18
-61.85
-40.54
-21.05
-2.68
16.26
36.78
58.68
80.53
100.31
116.40
127.56
134.30
137.71
139.81
142.16
145.29
148.78
152.09
155.58
160.58
169.09
181.92
197.53
211.42
217.33
209.66
186.01
148.49
102.85
56.52
15.89
-15.15
-35.26
-44.55
-43.71
-33.74
-16.50
4.66
25.17
40.31
46.83
44.13
34.33
21.28
9.08
0.53
-3.63
-4.49
-4.12
-4.43
-6.23
-8.83
-10.56
-9.57
-4.73
3.72
14.33
24.91
33.37
38.33
39.39
36.80
31.11
22.78
12.19
-0.28
-13.91
-27.54
-39.76
-49.42
-55.93
-59.48
-60.71
-60.01
-56.83
-49.46
-35.39
-12.40
20.11
60.16
103.17
143.00
173.61
190.91
193.76
183.92
165.04
141.11
114.98
87.70
58.50
25.50
-13.52
-59.94
-112.95
-168.47
-218.90
-254.47
-266.00
-248.49
-203.89
-141.42
-75.10
-19.05
17.15
31.27
28.01
15.58
1.33
-11.57
-24.78
-42.91
-69.96
-106.21
-147.02
-184.14
-208.65
-214.47
-200.20
-169.65
-130.69
-93.26
-66.75
-57.14
-64.77
-84.00
-105.39
-119.99
-123.71
-119.07
-113.04
-111.97
-117.06
-123.02
-121.14
-104.95
-74.55
-36.92
-1.96
23.05
36.98
44.43
52.11
64.76
82.78
102.93
120.82
133.65
141.25
145.51
148.78
152.26
155.64
157.57
156.95
153.81
149.49
146.03
145.10
147.19
151.35
155.65
157.76
155.83
148.92
137.20
121.93
105.17
89.23
76.12
66.88
61.33
58.19
55.74
52.38
47.24
40.31
32.20
23.77
15.75
8.59
2.52
-2.37
-6.08
-8.74
-10.59
-11.96
-13.12
-14.25
-15.22
-15.72
-15.40
-13.97
-11.21
-7.01
-1.47
5.19
12.54
20.25
27.99
35.43
42.15
47.69
51.54
53.31
52.90
50.60
47.32
44.07
41.57
40.06
39.40
39.28
39.42
39.72
40.17
41.50
44.10
47.80
52.01
56.14
59.82
63.03
65.86
68.31
71.80
77.24
84.83
94.11
104.36
114.96
125.43
135.29
143.97
153.39
164.95
179.08
195.04
211.71
228.28
244.49
260.24
275.03
290.55
306.45
319.85
326.02
320.73
302.38
272.87
236.75
180.02
98.89
-0.50
-103.48
-194.36
-263.54
-308.96
-333.63
-342.45
-340.57
-329.46
-310.31
-284.89
-255.96
-226.28
-197.83
-171.69
-148.33
-127.72
-108.82
-91.43
-76.55
-66.27
-62.76
-67.28
-79.82
-98.65
-121.02
-142.89
-161.05
-173.77
-180.89
-183.24
-181.95
-178.06
-172.17
-165.38
-158.00
-150.15
-141.89
-133.50
-125.19
-116.91
-111.00
-105.72
-99.92
-92.62
-82.92
-70.35
-55.00
-37.55
-19.07
-0.82
15.98
30.03
40.62
47.78
52.05
54.08
54.40
53.24
50.62
45.90
38.01
26.17
10.27
-8.83
-29.33
-49.00
-66.25
-76.24
-77.79
-72.68
-64.56
-57.49
-54.53
-56.66
-62.71
-70.00
-75.41
-76.89
-73.38
-64.73
-51.54
-34.93
-16.31
2.77
20.83
36.70
49.24
58.12
63.76
67.16
69.41
71.32
73.10
74.39
74.50
72.52
68.01
61.16
52.62
43.19
33.41
23.48
13.30
2.68
-8.64
-20.60
-32.81
-44.51
-54.77
-62.78
-68.20
-71.33
-73.08
-74.54
-76.45
-78.69
-80.31
-79.96
-76.47
-69.27
-58.42
-44.23
-27.05
-7.23
14.56
36.98
58.04
75.59
88.05
94.94
96.94
95.38
91.52
86.01
78.97
70.53
61.61
54.18
50.72
53.17
61.85
75.05
89.62
102.40
111.40
116.50
118.94
120.14
120.70
120.02
116.87
110.29
100.29
87.91
74.55
61.21
48.13
34.73
20.17
3.87
-14.13
-33.11
-51.67
-68.08
-80.56
-87.63
-88.56
-83.58
-73.83
-61.07
-47.23
-33.87
-22.00
-12.14
-4.56
0.49
2.73
2.03
-1.33
-6.56
-12.54
-18.25
-23.09
-27.00
-30.36
-33.53
-36.54
-39.02
-40.40
-40.21
-38.38
-35.28
-31.51
-27.72
-24.42
-21.96
-20.61
-20.58
-22.01
-24.90
-29.02
-33.96
-39.31
-44.71
-50.01
-55.20
-60.36
-65.44
-70.14
-73.82
-75.57
-74.55
-70.27
-62.83
-53.02
-42.02
-31.03
-20.87
-11.83
-3.72
3.81
10.91
17.37
22.71
26.43
28.37
28.65
27.66
25.89
23.71
21.37
19.07
16.95
15.16
13.69
12.39
11.06
9.57
7.97
6.51
5.34
4.35
2.99
0.51
-3.69
-9.86
-17.74
-26.73
-36.16
-45.48
-54.34
-62.60
-70.25
-77.43
-84.42
-91.54
-98.87
-105.94
-111.62
-114.26
-112.20
-104.41
-90.97
-73.19
-53.22
-33.38
-15.69
-1.36
9.29
16.63
21.57
25.29
28.88
33.17
38.54
44.87
51.74
58.64
65.21
71.32
76.90
81.84
85.79
88.24
88.77
87.28
84.14
80.10
75.91
72.12
68.84
65.86
62.89
59.74
56.46
53.18
50.06
47.03
43.84
40.15
35.65
30.22
24.00
17.29
10.53
4.14
-1.66
-6.87
-11.71
-16.60
-21.91
-27.94
-34.86
-42.79
-51.73
-61.44
-71.18
-79.72
-85.50
-87.16
-83.99
-76.26
-65.14
-52.31
-39.44
-27.80
-18.13
-10.69
-5.41
-1.98
-0.02
0.83
0.81
-0.08
-1.90
-4.68
-8.22
-12.06
-15.58
-18.24
-19.71
-20.10
-19.83
-19.55
-19.86
-21.02
-22.83
-24.65
-25.59
-24.85
-22.04
-17.32
-11.29
-4.70
1.90
8.55
15.90
25.10
37.29
52.98
71.43
90.31
105.93
114.30
112.38
99.46
77.59
51.15
25.51
5.32
-6.84
-10.94
-8.92
-3.64
2.42
7.77
12.22
16.39
21.19
27.27
34.72
43.11
51.75
59.87
66.87
72.35
75.99
77.47
76.56
73.24
67.88
61.18
54.04
47.15
40.73
34.44
27.69
20.06
11.69
3.36
-3.81
-8.79
-11.18
-11.33
-10.29
-9.38
-9.73
-11.96
-16.09
-21.64
-27.89
-34.02
-39.26
-43.06
-45.20
-46.00
-46.13
-46.39
-47.25
-48.54
-49.48
-49.19
-47.21
-43.94
-40.61
-38.68
-39.22
-42.34
-47.26
-52.74
-57.67
-61.53
-64.40
-66.78
-69.22
-72.09
-75.33
-78.65
-81.43
-82.92
-82.26
-78.54
-71.12
-59.72
-44.71
-27.07
-8.10
10.83
28.67
44.74
58.65
70.07
78.61
83.84
85.54
83.83
79.28
72.77
65.23
57.45
49.93
42.96
36.68
31.08
26.08
21.55
17.31
13.28
9.43
5.81
2.49
-0.52
-3.26
-5.84
-8.43
-11.12
-13.88
-16.57
-18.99
-20.99
-22.64
-24.21
-26.03
-28.17
-30.27
-31.56
-31.25
-29.07
-25.61
-22.14
-20.08
-20.30
-22.69
-26.36
-30.19
-33.59
-36.72
-40.32
-45.04
-50.77
-56.42
-60.29
-60.67
-56.60
-48.08
-36.00
-21.84
-7.18
6.54
18.14
26.72
31.82
33.60
32.99
31.53
30.93
32.35
35.91
40.54
44.40
45.68
43.30
37.38
29.11
20.14
11.94
5.19
-0.24
-4.97
-9.71
-14.89
-20.59
-26.69
-33.29
-40.69
-49.35
-59.38
-70.21
-80.38
-87.84
-90.37
-86.14
-74.06
-53.92
-26.66
5.63
39.79
72.10
99.15
118.64
129.92
133.74
131.72
125.27
115.27
102.08
86.15
68.58
51.26
36.59
26.93
24.04
28.66
40.16
56.39
73.60
86.97
91.37
82.89
60.11
24.92
-17.58
-60.52
-97.02
-122.28
-134.66
-135.68
-128.95
-118.58
-107.83
-98.31
-90.13
-82.39
-74.06
-64.38
-53.02
-39.95
-25.30
-9.38
7.26
23.74
38.94
51.68
61.12
67.13
70.25
71.53
71.99
72.16
71.89
70.52
67.32
61.78
53.98
44.34
33.47
21.97
10.36
-0.87
-11.08
-19.54
-25.41
-27.95
-26.78
-22.11
-14.84
-6.51
1.02
6.13
7.88
6.23
2.02
-3.42
-8.63
-12.27
-13.41
-11.60
-6.76
0.72
10.05
20.07
29.34
36.45
40.31
40.51
37.35
31.83
25.30
19.14
14.40
11.78
11.70
14.37
19.78
27.40
35.71
42.21
43.80
37.87
23.38
1.55
-24.27
-49.59
-70.17
-83.21
-87.69
-84.29
-74.67
-60.99
-45.61
-31.24
-20.82
-17.14
-22.28
-36.55
-58.18
-83.28
-106.78
-123.87
-131.32
-128.33
-116.50
-99.03
-79.42
-60.48
-43.87
-30.18
-19.54
-11.98
-7.59
-6.39
-8.21
-12.58
-18.84
-26.25
-33.87
-40.75
-45.79
-48.07
-47.26
-43.76
-38.50
-32.37
-25.59
-17.47
-6.93
6.56
22.06
37.01
47.96
51.77
46.92
33.81
14.49
-8.39
-32.52
-56.38
-79.25
-100.83
-121.08
-140.05
-158.13
-175.74
-193.10
-209.58
-223.42
-232.05
-232.91
-224.92
-209.21
-189.11
-168.82
-151.83
-139.44
-130.70
-123.40
-115.64
-107.08
-98.99
-93.41
-91.91
-94.88
-101.54
-110.71
-121.60
-133.98
-147.91
-163.04
-178.23
-191.51
-200.69
-203.75
-199.59
-188.44
-171.57
-150.86
-128.09
-104.63
-81.22
-58.30
-36.03
-14.83
4.58
21.17
34.11
43.07
48.49
51.51
53.65
56.96
63.08
72.68
85.29
99.49
113.48
125.67
134.98
140.90
145.01
149.03
153.91
159.24
163.49
165.03
163.24
158.76
153.15
151.66
158.84
176.66
203.23
233.60
262.02
284.70
300.69
311.47
325.33
350.17
390.30
444.06
504.87
564.28
616.24
658.23
690.92
724.05
767.94
830.03
911.77
1008.28
1110.34
1207.86
1291.44
1309.16
1224.48
1026.98
743.49
427.18
130.73
-114.93
-302.65
-440.44
-541.00
-607.68
-640.38
-640.07
-613.23
-570.36
-527.14
-495.68
-482.13
-487.80
-505.46
-527.22
-547.36
-563.43
-573.06
-574.22
-564.68
-543.77
-514.58
-480.01
-443.80
-408.94
-376.96
-348.25
-323.00
-302.00
-284.69
-270.45
-256.50
-239.47
-216.72
-187.79
-155.00
-122.90
-95.95
-76.82
-66.17
-61.99
-60.88
-59.35
-54.91
-46.58
-34.76
-22.46
-11.45
-2.72
3.52
7.69
10.27
11.41
10.73
7.22
-0.29
-12.30
-28.91
-49.53
-73.09
-98.23
-123.63
-148.25
-171.49
-193.04
-212.44
-229.34
-243.30
-253.85
-260.48
-262.89
-261.01
-255.24
-246.28
-234.87
-221.81
-207.67
-192.62
-176.44
-158.67
-138.84
-116.86
-93.08
-68.29
-43.50
-19.60
2.91
24.23
44.99
66.08
88.13
111.35
135.48
160.03
184.56
209.10
234.31
261.48
292.42
328.90
371.79
419.99
469.85
515.30
549.08
564.77
558.47
529.99
482.57
421.84
354.17
285.59
221.01
163.90
116.25
78.30
48.70
24.91
4.22
-15.37
-34.69
-53.56
-71.65
-88.85
-105.25
-120.45
-133.04
-140.77
-141.65
-135.42
-124.33
-112.57
-104.11
-100.71
-100.58
-99.25
-91.75
-75.06
-49.58
-18.72
12.91
41.54
65.21
84.00
98.94
111.03
120.99
129.51
137.56
146.30
156.47
167.43
176.78
181.08
177.14
163.52
141.44
114.47
87.30
64.31
48.30
40.03
38.39
40.97
44.82
47.19
46.07
40.60
31.10
18.97
6.25
-5.03
-13.33
-18.18
-20.21
-20.86
-21.62
-23.32
-25.74
-27.85
-28.57
-27.54
-25.51
-23.93
-24.19
-26.83
-31.20
-35.78
-38.79
-38.94
-35.85
-29.91
-22.02
-13.02
-3.56
5.95
15.07
23.04
28.82
31.29
29.87
24.93
17.94
10.97
5.90
3.70
4.10
5.87
7.34
7.00
3.99
-1.70
-9.22
-17.02
-23.43
-27.19
-28.01
-26.75
-25.14
-25.09
-28.07
-34.54
-44.00
-55.20
-66.51
-76.17
-82.59
-84.50
-81.35
-73.49
-62.26
-49.67
-37.86
-28.36
-21.69
-17.32
-14.07
-10.80
-6.89
-2.51
1.54
4.33
5.23
4.22
1.87
-0.89
-3.04
-3.77
-2.57
0.66
5.63
11.61
17.51
22.08
24.25
23.47
19.84
14.13
7.49
1.25
-3.41
-5.75
-5.63
-3.53
-0.56
1.84
2.23
-0.37
-6.16
-14.41
-23.55
-31.63
-36.84
-38.12
-35.43
-29.68
-22.34
-14.89
-8.34
-3.10
0.97
4.22
7.00
9.52
11.87
14.05
15.97
17.49
18.43
18.74
18.50
17.94
17.32
16.79
16.30
15.71
14.93
14.00
13.10
12.37
11.85
11.49
11.31
11.42
12.03
13.24
14.89
16.43
17.13
16.26
13.43
8.70
2.62
-4.05
-10.50
-16.06
-20.29
-22.99
-24.13
-23.72
-21.84
-18.55
-13.94
-8.16
-1.54
5.49
12.36
18.43
23.15
26.08
27.00
26.01
23.46
19.97
16.28
13.10
10.96
10.08
10.25
11.00
11.66
11.59
10.33
7.75
4.15
0.05
-3.85
-7.00
-9.09
-10.13
-10.41
-10.36
-10.38
-10.69
-11.42
-12.53
-13.94
-15.52
-17.01
-18.16
-18.75
-18.65
-17.97
-17.04
-16.22
-15.82
-15.83
-15.95
-15.62
-14.19
-11.16
-6.36
-0.03
7.24
14.64
21.33
26.59
29.83
30.72
29.20
25.57
20.45
14.76
9.39
5.05
2.02
0.12
-1.17
-2.53
-4.57
-7.71
-12.07
-17.56
-23.89
-30.64
-37.41
-43.84
-49.71
-55.01
-60.05
-65.37
-71.72
-79.92
-90.59
-103.85
-119.21
-135.60
-151.50
-165.33
-175.79
-182.16
-184.55
-183.79
-181.22
-178.11
-175.08
-171.56
-165.82
-155.46
-138.47
-114.03
-83.00
-47.67
-11.00
24.29
56.31
84.31
108.57
130.18
150.53
170.66
190.68
209.30
224.18
232.70
233.16
225.67
212.22
195.91
179.82
166.19
156.13
149.93
147.42
148.09
150.93
154.36
156.39
155.43
151.08
144.58
138.57
136.13
139.54
149.16
163.19
178.13
189.93
195.26
192.32
181.12
163.10
140.34
114.93
88.67
62.96
38.99
17.67
-0.63
-16.36
-30.89
-46.02
-63.04
-81.85
-100.67
-116.45
-126.07
-127.59
-121.09
-108.73
-94.03
-80.88
-72.52
-70.80
-75.78
-85.77
-97.70
-108.01
-114.02
-114.99
-112.66
-110.80
-113.88
-125.16
-145.15
-170.95
-196.81
-215.93
-222.65
-214.17
-191.42
-158.42
-120.79
-83.99
-51.91
-26.46
-7.96
4.17
10.80
12.94
11.91
9.59
8.14
9.49
14.56
22.80
32.36
40.88
46.50
48.70
48.35
46.86
45.16
42.87
38.37
29.60
15.28
-4.21
-26.62
-48.37
-65.56
-74.81
-74.10
-63.24
-43.93
-19.58
5.49
27.08
42.24
49.95
51.27
48.60
44.66
41.37
39.16
37.08
33.44
26.88
16.91
4.25
-9.62
-23.06
-34.71
-43.67
-49.34
-51.25
-49.13
-43.15
-34.11
-23.45
-12.84
-3.57
3.77
9.49
14.43
19.58
25.63
32.63
39.91
46.11
49.72
49.64
45.87
39.58
32.73
27.23
23.90
22.18
20.32
16.43
9.49
-0.04
-10.33
-18.95
-23.96
-24.77
-22.25
-18.28
-14.69
-12.52
-11.65
-11.17
-10.05
-7.75
-4.46
-0.68
3.26
7.57
12.85
19.62
27.85
36.86
45.44
52.43
57.26
59.98
61.09
61.15
60.45
58.75
55.41
50.01
42.67
34.42
27.03
22.38
21.69
25.22
32.23
41.35
50.98
59.45
65.11
66.67
63.02
53.47
37.86
16.50
-10.04
-40.84
-74.48
-108.84
-140.55
-166.38
-184.43
-194.63
-198.31
-196.97
-190.85
-178.64
-158.34
-127.85
-87.37
-39.45
11.92
62.53
108.95
148.73
179.86
200.47
210.41
210.95
205.26
198.39
196.41
205.01
228.42
268.95
317.35
363.63
396.89
407.63
389.65
341.01
264.42
167.21
60.52
-42.65
-129.44
-191.95
-228.86
-244.51
-245.98
-239.82
-230.07
-218.67
-206.63
-194.34
-182.86
-173.23
-165.67
-159.38
-153.03
-145.37
-136.20
-126.54
-117.56
-110.44
-105.61
-102.44
-99.59
-95.59
-89.44
-81.08
-71.41
-61.56
-52.71
-45.57
-40.24
-36.25
-32.93
-29.64
-26.04
-22.20
-18.32
-14.72
-11.51
-8.51
-5.29
-1.43
3.38
9.13
15.51
22.07
28.25
33.59
37.68
40.49
41.52
40.59
37.64
32.83
26.44
18.81
10.35
1.55
-7.06
-14.86
-21.15
-25.33
-27.10
-26.56
-24.34
-21.33
-18.52
-16.71
-16.34
-17.31
-19.10
-20.99
-22.08
-21.71
-19.44
-15.32
-9.87
-4.02
1.16
5.06
7.99
11.14
15.82
22.92
32.31
42.89
53.03
61.17
66.39
68.50
67.95
65.15
60.66
55.22
49.77
45.33
42.45
41.23
41.42
42.77
44.86
47.52
50.80
54.53
58.34
60.88
60.81
57.16
51.67
45.41
39.21
33.58
28.87
25.22
21.03
14.19
2.78
-14.21
-37.12
-65.11
-95.87
-125.95
-151.44
-171.31
-185.67
-194.64
-197.65
-194.11
-183.91
-167.59
-146.59
-123.27
-104.09
-95.82
-103.13
-126.81
-164.30
-210.77
-260.46
-308.20
-332.36
-318.73
-266.08
-185.87
-92.57
2.81
91.90
166.34
218.23
243.56
242.38
221.89
194.03
170.69
158.60
157.95
164.92
175.61
187.91
199.66
209.32
215.79
218.70
217.84
213.37
206.43
199.25
193.80
190.37
188.21
186.37
184.28
181.85
179.47
178.08
179.12
183.21
189.89
197.92
205.67
211.60
214.40
212.82
205.27
195.75
185.68
175.54
165.08
153.79
141.18
127.09
111.77
95.79
79.93
63.94
47.52
30.25
11.76
-7.93
-28.33
-48.40
-66.90
-82.73
-96.08
-107.69
-118.81
-130.75
-144.56
-160.61
-178.59
-197.72
-216.97
-235.99
-254.63
-273.18
-292.32
-313.05
-336.17
-361.53
-387.32
-409.74
-423.93
-425.15
-410.53
-380.35
-337.92
-288.54
-237.70
-189.65
-146.84
-110.20
-79.64
-54.43
-33.46
-15.49
0.36
13.98
23.93
27.82
23.28
8.92
-15.07
-47.17
-85.00
-125.81
-166.64
-204.24
-235.18
-256.34
-265.95
-264.31
-254.06
-239.37
-224.82
-214.02
-208.91
-209.72
-215.22
-223.35
-231.46
-236.63
-235.97
-227.18
-209.12
-182.25
-148.67
-111.68
-74.95
-41.62
-13.63
8.54
25.70
39.43
51.63
63.96
77.68
93.57
112.05
133.40
157.95
186.13
218.29
254.09
291.82
328.20
358.68
378.75
385.45
378.53
360.60
336.04
309.28
283.24
258.96
236.14
214.24
193.36
174.16
157.13
141.63
125.55
105.76
79.20
44.09
0.80
-47.78
-96.66
-139.80
-171.62
-188.51
-189.69
-177.16
-154.63
-126.12
-94.90
-63.18
-32.67
-5.32
16.54
30.60
35.53
31.75
21.56
8.42
-4.26
-14.14
-20.43
-23.60
-24.80
-25.28
-25.98
-27.30
-29.23
-31.42
-33.38
-34.57
-34.51
-32.76
-29.00
-23.05
-15.02
-5.26
5.58
16.57
26.72
35.16
41.26
44.89
46.35
46.34
45.77
45.43
45.71
46.47
47.04
46.55
44.34
40.31
35.02
29.36
24.20
19.94
16.40
13.05
9.25
4.66
-0.55
-5.85
-10.59
-14.33
-17.05
-19.21
-21.53
-24.74
-29.20
-34.80
-40.90
-46.54
-50.71
-52.63
-51.93
-48.64
-43.07
-35.54
-26.34
-15.63
-3.63
9.19
22.05
33.87
43.55
50.22
53.55
53.79
51.68
48.29
44.78
42.19
41.24
42.11
44.25
46.53
47.47
45.63
40.12
30.95
19.09
6.10
-6.28
-16.74
-24.66
-30.06
-33.34
-34.78
-34.44
-32.19
-28.14
-23.00
-18.15
-15.39
-16.30
-21.57
-30.51
-41.15
-50.73
-56.50
-56.60
-50.53
-39.29
-24.90
-9.64
4.66
17.05
27.47
36.43
44.48
51.87
58.36
63.41
66.41
67.06
65.45
62.22
58.33
54.81
52.46
51.57
51.89
52.69
53.04
52.11
49.54
45.41
40.19
34.65
29.59
25.74
23.48
22.75
22.94
23.10
22.10
19.02
13.39
5.31
-4.61
-15.43
-26.15
-35.85
-43.76
-49.24
-51.85
-51.22
-47.33
-40.45
-31.34
-21.06
-10.80
-1.50
6.46
13.27
19.47
25.55
31.62
37.29
41.88
44.80
45.82
45.20
43.43
41.11
38.61
36.18
33.97
32.13
30.84
30.13
29.91
29.88
29.59
28.65
26.86
24.33
21.37
18.59
16.41
15.08
14.44
14.05
13.34
11.89
9.62
6.71
3.56
0.52
-2.30
-5.00
-7.85
-11.18
-15.21
-19.92
-25.08
-30.19
-34.53
-37.34
-37.94
-35.95
-31.40
-24.75
-16.71
-8.09
0.43
8.37
15.44
21.51
26.49
30.29
32.87
34.27
34.65
34.24
33.28
31.88
30.13
28.05
25.80
23.66
22.03
21.23
21.30
21.95
22.67
23.03
22.84
22.16
21.24
20.23
19.03
17.41
15.14
12.22
8.85
5.46
2.36
-0.33
-2.71
-5.01
-7.41
-9.91
-12.41
-14.80
-17.00
-19.09
-21.18
-23.29
-25.30
-26.83
-27.31
-26.18
-23.08
-18.01
-11.32
-3.65
4.27
11.76
18.34
23.75
27.85
30.57
31.89
31.83
30.53
28.21
25.19
21.82
18.48
15.44
12.97
11.25
10.41
10.47
11.31
12.63
14.08
15.32
16.11
16.44
16.51
16.54
16.69
16.93
17.10
17.04
16.70
16.20
15.75
15.53
15.58
15.94
16.66
17.96
20.08
23.09
26.70
30.26
33.40
36.72
42.13
52.23
69.13
93.31
123.45
157.01
191.50
225.13
256.66
284.68
307.04
321.23
325.44
319.58
305.51
286.23
264.29
240.89
215.81
188.32
158.30
126.73
95.25
65.46
38.45
14.64
-5.84
-22.90
-36.31
-45.82
-51.37
-53.33
-52.63
-50.57
-48.80
-49.02
-52.75
-61.13
-74.69
-93.28
-115.97
-141.04
-166.12
-188.58
-206.15
-217.64
-223.40
-225.24
-225.80
-227.36
-230.89
-235.62
-239.52
-240.15
-235.86
-226.35
-212.70
-196.85
-180.92
-166.65
-155.12
-146.78
-141.36
-138.04
-135.64
-132.82
-128.52
-122.13
-113.62
-103.48
-92.50
-81.46
-71.03
-61.68
-53.58
-46.74
-40.99
-36.05
-31.67
-27.67
-24.01
-20.79
-18.21
-16.44
-15.61
-15.66
-16.32
-17.29
-18.25
-19.09
-19.98
-21.17
-22.82
-24.78
-26.43
-26.92
-25.49
-21.77
-16.04
-9.12
-2.04
4.30
9.36
13.08
15.73
17.62
19.00
19.87
20.12
19.63
18.37
16.47
14.29
12.31
11.09
11.14
12.67
15.40
18.62
21.34
22.69
22.36
20.72
18.64
17.11
16.59
16.80
16.87
15.81
13.26
9.71
6.54
5.36
7.37
12.82
20.86
30.17
39.30
47.34
54.00
59.48
64.37
69.89
78.41
93.53
119.07
157.04
205.66
258.53
306.17
339.30
352.53
346.52
327.36
303.82
283.76
271.64
267.96
270.40
275.54
280.08
281.52
278.16
269.26
255.14
237.09
216.95
196.16
175.22
153.21
127.94
96.52
56.22
5.73
-53.30
-115.30
-171.20
-210.87
-227.12
-219.16
-193.75
-162.83
-138.62
-128.66
-133.28
-146.91
-162.08
-173.67
-181.09
-187.65
-198.08
-215.66
-240.49
-269.40
-297.16
-318.31
-329.13
-329.05
-320.85
-309.67
-300.85
-297.72
-300.54
-306.78
-312.92
-316.36
-316.31
-313.41
-308.43
-301.25
-290.61
-275.18
-254.78
-231.16
-207.77
-188.75
-177.29
-174.44
-178.72
-186.72
-194.46
-198.81
-198.53
-194.46
-188.90
-184.55
-183.53
-186.81
-194.07
-203.86
-213.90
-221.26
-222.88
-216.07
-199.52
-174.09
-142.99
-111.16
-83.75
-64.47
-54.67
-53.22
-57.31
-63.65
-69.24
-71.79
-69.75
-62.24
-49.01
-30.68
-8.60
15.33
39.18
61.53
81.85
100.42
118.05
135.75
154.37
174.48
196.16
218.80
241.19
261.71
278.57
290.34
296.20
295.94
290.01
279.10
264.05
245.73
225.15
203.51
182.15
162.43
145.29
131.11
119.47
109.34
99.42
88.62
76.62
64.14
52.73
44.23
39.96
40.08
43.51
48.49
53.29
56.70
58.26
57.97
56.01
52.46
47.36
40.96
33.85
26.93
21.11
16.97
14.50
13.13
12.06
10.72
9.19
8.33
9.21
12.27
16.58
19.68
18.52
10.88
-3.22
-21.16
-38.53
-51.07
-56.37
-54.58
-47.92
-39.22
-30.58
-22.83
-16.00
-9.78
-3.92
2.16
9.96
21.85
40.12
65.34
95.15
124.57
147.66
160.19
161.56
155.03
145.68
137.75
132.82
130.00
127.71
125.33
123.81
124.78
129.02
135.06
139.58
138.80
130.59
115.84
97.57
79.34
63.72
51.95
43.96
39.04
36.28
34.67
34.08
33.90
32.87
29.81
24.67
18.36
11.88
5.56
-0.94
-5.94
-8.05
-6.99
-3.37
2.41
10.29
20.09
31.08
41.99
54.48
68.80
82.73
93.00
98.54
100.95
102.84
105.95
110.54
120.12
136.64
158.89
183.23
205.95
223.73
233.07
230.95
190.27
104.45
-5.91
-106.82
-176.47
-212.87
-225.89
-227.91
-228.28
-231.03
-232.53
-229.16
-221.62
-214.58
-212.83
-219.20
-234.83
-260.42
-294.32
-331.35
-366.51
-396.07
-416.62
-423.60
-412.58
-382.04
-335.20
-279.15
-220.49
-164.99
-116.78
-77.96
-48.13
-25.51
-8.17
5.56
17.74
31.77
50.76
75.98
106.26
138.96
170.96
199.88
224.68
245.50
262.90
276.50
284.53
284.50
274.82
255.96
230.64
202.85
176.60
154.67
138.32
127.47
121.15
117.84
115.57
112.12
105.42
94.14
78.22
59.19
39.73
22.61
9.78
1.46
-3.83
-8.65
-15.75
-27.10
-43.31
-63.54
-85.89
-107.86
-127.01
-141.40
-149.89
-152.41
-149.83
-143.67
-135.54
-126.72
-117.93
-109.51
-101.75
-94.94
-89.45
-85.31
-82.05
-78.64
-73.83
-66.56
-56.35
-43.58
-29.25
-14.68
-0.95
11.15
21.23
28.97
33.95
35.80
34.33
29.97
23.74
17.02
11.11
6.83
4.41
3.71
4.59
6.91
10.52
14.90
19.11
21.96
22.55
20.75
17.26
13.35
10.30
8.95
9.45
11.33
13.84
16.11
17.43
17.32
15.74
13.16
10.50
8.82
8.78
10.43
13.17
16.05
18.30
19.70
20.57
21.55
23.19
25.72
29.05
32.90
36.83
40.38
43.08
44.44
44.03
41.57
36.82
29.77
20.65
10.12
-0.56
-9.71
-15.50
-16.68
-12.92
-5.22
4.34
13.24
19.25
21.32
19.78
16.22
12.71
10.78
10.75
11.53
11.13
7.66
0.28
-10.29
-22.05
-32.46
-39.51
-42.34
-41.49
-38.37
-34.64
-31.49
-29.37
-27.90
-26.18
-23.06
-17.40
-8.23
5.26
23.34
45.50
69.94
93.46
111.99
121.73
120.48
108.45
88.34
64.49
41.59
23.18
10.79
4.00
1.27
0.99
1.89
3.14
3.86
3.21
0.12
-6.29
-16.09
-27.95
-39.40
-47.80
-51.49
-50.25
-44.24
-34.37
-22.19
-9.54
2.04
11.67
18.75
22.82
23.64
23.33
24.09
26.57
29.34
30.12
27.15
19.83
9.01
-3.03
-9.95
-6.30
8.97
31.64
54.84
72.38
80.33
77.71
66.29
53.96
48.55
54.08
70.44
96.31
131.21
174.74
225.25
256.54
248.48
199.40
126.46
48.66
-24.11
-89.08
-146.00
-192.35
-227.87
-245.17
-238.75
-211.11
-172.87
-137.39
-115.11
-111.90
-128.35
-158.32
-186.54
-197.11
-180.44
-135.40
-67.03
16.31
104.51
179.84
221.84
223.61
195.13
152.60
107.58
64.93
26.10
-8.20
-36.54
-56.81
-65.76
-62.69
-52.05
-40.79
-34.30
-32.92
-33.37
-30.82
-22.10
-5.96
15.10
33.91
41.75
33.12
7.82
-29.95
-73.34
-116.74
-156.05
-182.14
-188.48
-174.85
-146.83
-111.92
-80.18
-47.84
-8.30
44.39
112.89
193.95
278.14
349.01
390.01
391.45
355.96
293.55
217.03
138.04
67.40
6.46
-42.64
-77.43
-99.11
-111.60
-121.80
-130.33
-138.20
-145.51
-152.03
-156.19
-155.87
-151.69
-145.49
-140.83
-141.38
-150.59
-170.56
-201.55
-240.17
-266.99
-265.33
-228.90
-165.87
-91.66
-19.58
43.44
95.37
137.56
172.28
199.50
218.77
230.58
236.59
239.27
241.34
243.60
246.08
248.22
247.72
242.55
232.38
218.08
201.73
185.42
170.35
156.98
144.83
131.46
113.28
92.42
69.74
46.25
22.83
0.06
-21.64
-41.94
-61.10
-79.47
-97.17
-114.83
-132.79
-151.49
-171.60
-193.64
-217.38
-241.61
-263.62
-279.73
-286.89
-283.20
-268.89
-246.30
-219.02
-190.69
-163.98
-140.15
-119.26
-101.28
-86.02
-73.44
-63.55
-56.15
-50.70
-46.36
-42.15
-37.22
-31.26
-24.33
-16.76
-8.84
-0.78
7.41
15.76
24.15
32.24
39.48
45.41
49.86
53.06
55.47
57.50
59.33
60.75
61.33
60.61
58.33
54.53
49.55
43.93
38.24
33.02
28.63
25.23
22.66
20.59
18.58
16.36
13.87
11.27
8.78
6.43
4.05
1.34
-1.91
-5.61
-9.33
-12.52
-14.70
-15.76
-15.94
-15.71
-15.59
-15.95
-16.99
-18.63
-20.67
-22.69
-24.10
-24.28
-22.68
-19.05
-13.55
-6.73
0.59
7.58
13.54
18.07
21.08
22.71
23.25
23.06
22.42
21.48
20.25
18.64
16.61
14.28
11.88
9.71
8.00
6.79
5.99
5.40
4.92
4.55
4.32
4.21
4.06
3.62
2.66
1.11
-0.90
-3.15
-5.40
-7.53
-9.52
-11.43
-13.31
-15.26
-17.37
-19.67
-22.19
-24.81
-27.18
-28.77
-28.99
-27.41
-23.94
-18.88
-12.87
-6.68
-0.96
3.90
7.76
10.61
12.52
13.38
13.04
11.38
8.37
4.21
-0.69
-5.79
-10.46
-14.12
-16.31
-16.77
-15.51
-12.81
-9.17
-5.25
-1.71
0.87
2.16
2.04
0.68
-1.49
-4.03
-6.50
-8.66
-10.49
-12.20
-14.05
-16.30
-19.17
-22.72
-26.89
-31.30
-35.35
-38.27
-39.30
-38.01
-34.44
-29.10
-22.69
-15.93
-9.28
-3.02
2.72
7.87
12.29
15.80
18.09
18.81
17.68
14.61
9.87
4.15
-1.50
-5.99
-8.47
-8.59
-6.51
-2.91
1.33
5.27
8.10
9.22
8.29
5.30
0.67
-4.85
-10.27
-14.74
-17.78
-19.46
-20.39
-21.46
-23.36
-26.33
-29.93
-33.29
-35.42
-35.51
-33.10
-28.14
-21.00
-12.38
-3.20
5.52
12.95
18.59
22.42
24.75
26.10
26.83
27.14
26.99
26.30
25.17
23.72
22.14
20.52
18.82
17.03
15.19
13.49
12.10
11.15
10.56
10.07
9.31
8.01
6.07
3.54
0.63
-2.44
-5.39
-7.99
-10.13
-11.93
-13.72
-16.00
-19.18
-23.32
-27.93
-32.09
-34.63
-34.62
-31.77
-26.51
-19.92
-13.29
-7.78
-4.04
-2.27
-2.23
-3.60
-6.04
-9.36
-13.42
-18.04
-22.96
-27.82
-32.28
-36.03
-38.85
-40.50
-40.74
-39.29
-35.95
-30.75
-24.14
-16.89
-9.89
-3.92
0.67
3.84
5.72
6.35
5.64
3.40
-0.35
-5.27
-10.78
-16.29
-21.47
-26.21
-30.47
-33.90
-35.82
-35.38
-31.99
-25.73
-17.48
-8.65
-0.56
5.99
10.86
14.50
17.46
20.11
22.51
24.62
26.38
27.96
29.67
31.69
34.03
36.38
38.26
39.18
38.93
37.49
35.13
32.18
29.03
26.03
23.51
21.73
20.83
20.73
21.14
21.61
21.67
21.08
19.80
18.00
15.85
13.33
10.24
6.25
1.21
-4.68
-10.86
-16.41
-20.36
-21.92
-20.69
-16.77
-10.76
-3.62
3.51
9.57
13.88
16.31
17.22
17.36
17.56
18.46
20.35
23.18
26.61
30.23
33.66
36.63
38.94
40.52
41.33
41.52
41.34
41.16
41.41
42.38
44.07
46.24
48.50
50.39
51.65
52.04
51.42
49.70
46.75
42.55
37.24
31.18
24.83
18.74
13.26
8.55
4.54
1.00
-2.30
-5.50
-8.54
-11.09
-12.62
-12.50
-10.26
-5.82
0.44
7.75
15.20
21.96
27.58
31.89
34.92
36.77
37.48
37.04
35.57
33.33
30.69
28.12
25.93
24.26
23.02
22.08
21.29
20.68
20.35
20.47
21.04
21.93
22.82
23.35
23.18
22.14
20.25
17.69
14.71
11.51
8.25
5.01
1.88
-0.98
-3.44
-5.44
-7.09
-8.69
-10.51
-12.64
-14.89
-16.84
-18.03
-18.11
-17.02
-14.92
-12.07
-8.68
-4.93
-1.01
2.81
6.15
8.55
9.69
9.40
7.87
5.50
2.84
0.49
-1.11
-1.75
-1.52
-0.69
0.39
1.39
2.11
2.44
2.45
2.27
2.03
1.79
1.50
0.97
-0.01
-1.60
-3.71
-6.11
-8.47
-10.51
-12.15
-13.47
-14.76
-16.25
-18.10
-20.32
-22.79
-25.28
-27.41
-28.64
-28.47
-26.52
-22.80
-17.70
-11.88
-6.02
-0.60
4.09
7.83
10.30
11.07
9.74
6.32
1.40
-3.96
-8.61
-11.74
-13.25
-13.59
-13.54
-13.72
-14.36
-15.31
-16.25
-16.82
-16.79
-16.03
-14.41
-11.86
-8.42
-4.41
-0.52
2.38
3.48
2.36
-0.93
-5.84
-11.56
-17.25
-22.37
-26.64
-29.94
-32.13
-32.91
-31.87
-28.64
-23.17
-15.83
-7.37
1.29
9.33
16.16
21.50
25.28
27.64
28.74
28.81
28.13
27.01
25.73
24.51
23.48
22.70
22.24
22.07
22.07
22.13
22.05
21.73
21.17
20.46
19.69
18.86
17.85
16.52
14.79
12.71
10.39
7.94
5.47
3.02
0.65
-1.59
-3.68
-5.76
-8.08
-10.97
-14.64
-19.08
-24.00
-28.87
-33.03
-35.87
-36.84
-35.56
-31.94
-26.25
-19.18
-11.66
-4.69
1.02
5.14
7.81
9.42
10.40
11.02
11.41
11.57
11.49
11.20
10.80
10.42
10.19
10.16
10.31
10.57
10.84
11.02
11.00
10.78
10.38
9.87
9.32
8.74
8.10
7.38
6.55
5.58
4.44
3.04
1.30
-0.88
-3.45
-6.21
-8.89
-11.19
-13.03
-14.58
-16.21
-18.36
-21.32
-25.03
-29.01
-32.49
-34.67
-34.93
-33.11
-29.48
-24.62
-19.19
-13.80
-8.84
-4.52
-0.94
1.85
3.81
4.97
5.41
5.42
5.34
5.56
6.28
7.50
8.95
10.22
10.96
11.02
10.54
9.85
9.19
8.61
7.95
6.97
5.53
3.75
1.93
0.41
-0.60
-1.08
-1.28
-1.52
-2.05
-2.98
-4.30
-5.93
-7.81
-9.94
-12.30
-14.86
-17.51
-20.05
-22.36
-24.44
-26.37
-28.25
-30.03
-31.39
-31.86
-31.00
-28.56
-24.62
-19.54
-13.79
-7.79
-1.86
3.83
9.09
13.71
17.43
19.93
21.09
20.92
19.73
17.90
15.87
14.01
12.49
11.35
10.48
9.80
9.24
8.78
8.39
8.05
7.75
7.47
7.27
7.16
7.11
7.02
6.65
5.74
4.07
1.52
-1.85
-5.83
-10.06
-14.15
-17.71
-20.43
-22.11
-22.75
-22.52
-21.79
-21.03
-20.70
-21.17
-22.52
-24.51
-26.60
-28.08
-28.27
-26.78
-23.55
-18.93
-13.51
-7.89
-2.57
2.19
6.32
9.90
12.98
15.58
17.67
19.20
20.13
20.51
20.41
19.97
19.32
18.48
17.49
16.30
14.91
13.46
12.13
11.15
10.69
10.79
11.27
11.92
12.47
12.67
12.44
11.76
10.68
9.19
7.27
4.76
1.59
-2.23
-6.54
-11.02
-15.31
-19.17
-22.53
-25.43
-27.95
-30.04
-31.57
-32.39
-32.39
-31.60
-30.01
-27.61
-24.31
-20.05
-14.99
-9.53
-4.26
0.27
3.68
5.95
7.33
8.17
8.85
9.50
10.24
11.00
11.74
12.35
12.71
12.78
12.54
12.08
11.57
11.19
11.12
11.45
12.18
13.16
14.19
15.12
15.87
16.34
16.42
15.90
14.59
12.45
9.69
6.72
4.06
2.09
0.90
0.34
0.12
0.00
-0.16
-0.47
-1.03
-1.98
-3.40
-5.18
-6.96
-8.25
-8.54
-7.50
-5.05
-1.45
2.80
7.09
10.88
13.83
15.86
17.10
17.78
18.07
17.94
17.16
15.44
12.58
8.70
4.16
-0.40
-4.29
-6.92
-7.98
-7.54
-5.91
-3.63
-1.14
1.21
3.35
5.24
6.82
7.90
8.20
7.47
5.67
3.03
-0.04
-3.04
-5.57
-7.46
-8.72
-9.50
-10.02
-10.52
-11.20
-12.25
-13.72
-15.46
-17.09
-18.10
-17.97
-16.28
-12.81
-7.53
-0.65
7.37
15.85
23.93
30.81
35.85
38.84
39.90
39.42
37.84
35.53
32.75
29.73
26.69
23.79
21.11
18.56
15.92
12.93
9.57
5.99
2.69
0.11
-1.46
-2.04
-1.97
-1.72
-1.69
-2.12
-3.12
-4.64
-6.53
-8.69
-10.97
-13.24
-15.42
-17.53
-19.68
-22.09
-24.95
-28.30
-31.90
-35.18
-37.35
-37.47
-34.90
-29.46
-21.62
-12.51
-3.48
4.16
9.67
12.81
13.87
13.32
11.58
8.97
5.78
2.34
-0.92
-3.55
-5.30
-6.17
-6.45
-6.49
-6.60
-6.86
-7.20
-7.47
-7.56
-7.55
-7.62
-7.99
-8.82
-10.10
-11.75
-13.53
-15.20
-16.54
-17.37
-17.78
-18.01
-18.54
-19.88
-22.39
-26.01
-30.19
-33.86
-35.76
-34.94
-31.04
-24.50
-16.32
-7.73
0.22
6.87
11.97
15.46
17.42
17.92
17.14
15.51
13.64
12.20
11.63
12.02
13.06
14.28
15.20
15.59
15.43
14.89
14.18
13.41
12.55
11.52
10.25
8.74
7.08
5.44
3.99
2.88
2.14
1.65
1.09
0.12
-1.62
-4.32
-7.92
-12.07
-16.16
-19.54
-21.56
-21.77
-19.97
-16.22
-10.89
-4.56
2.06
8.34
13.74
18.03
21.20
23.39
24.75
25.49
25.71
25.48
24.83
23.76
22.26
20.39
18.31
16.21
14.35
12.88
11.71
10.66
9.45
7.83
5.65
2.94
-0.19
-3.60
-7.08
-10.41
-13.34
-15.70
-17.42
-18.71
-19.96
-21.60
-23.91
-26.84
-29.92
-32.39
-33.51
-32.71
-29.83
-25.08
-18.96
-12.08
-5.07
1.54
7.34
12.05
15.51
17.73
18.81
18.94
18.39
17.43
16.28
15.09
13.92
12.72
11.45
10.13
8.86
7.80
7.14
6.88
6.92
7.01
6.89
6.34
5.26
3.69
1.71
-0.55
-3.00
-5.57
-8.23
-10.93
-13.67
-16.49
-19.40
-22.38
-25.28
-27.82
-29.56
-30.01
-28.75
-25.60
-20.64
-14.28
-7.08
0.30
7.27
13.44
18.58
22.65
25.72
27.89
29.27
29.90
29.88
29.35
28.52
27.65
27.00
26.70
26.74
27.05
27.52
28.12
28.89
29.86
30.93
31.87
32.30
31.88
30.46
28.13
25.23
22.16
19.23
16.48
13.82
10.97
7.70
3.98
-0.16
-4.46
-8.65
-12.51
-15.95
-18.97
-21.63
-23.90
-25.57
-26.31
-25.81
-23.86
-20.54
-16.10
-10.97
-5.52
-0.08
5.11
9.80
13.68
16.46
17.93
18.17
17.44
16.16
14.72
13.38
12.21
11.22
10.39
9.73
9.35
9.35
9.78
10.55
11.49
12.36
13.00
13.35
13.39
13.18
12.73
11.96
10.72
8.92
6.61
4.06
1.56
-0.66
-2.59
-4.39
-6.35
-8.62
-11.21
-13.93
-16.52
-18.80
-20.76
-22.49
-24.21
-26.08
-28.11
-30.11
-31.68
-32.33
-31.61
-29.29
-25.47
-20.59
-15.21
-9.88
-4.99
-0.77
2.64
5.20
6.89
7.77
7.97
7.77
7.40
7.01
6.62
6.13
5.46
4.64
3.79
3.10
2.73
2.73
3.15
3.99
5.26
6.90
8.66
10.09
10.61
9.82
7.51
3.90
-0.48
-5.05
-9.32
-13.04
-16.17
-18.72
-20.67
-21.97
-22.56
-22.50
-21.97
-21.27
-20.80
-20.85
-21.58
-22.92
-24.66
-26.44
-27.92
-28.82
-28.90
-27.92
-25.74
-22.21
-17.42
-11.71
-5.69
-0.13
4.23
6.95
7.90
7.28
5.52
3.01
0.13
-2.79
-5.49
-7.73
-9.22
-9.77
-9.28
-7.77
-5.46
-2.58
0.56
3.70
6.58
8.98
10.65
11.39
11.12
9.85
7.85
5.49
3.10
0.95
-0.91
-2.58
-4.26
-6.00
-7.82
-9.58
-11.20
-12.73
-14.34
-16.21
-18.51
-21.24
-24.21
-27.22
-29.92
-32.04
-33.31
-33.50
-32.47
-30.24
-26.93
-22.82
-18.22
-13.36
-8.48
-3.82
0.43
4.07
7.03
9.44
11.60
13.78
16.14
18.59
20.73
22.22
22.81
22.46
21.36
19.76
17.94
16.17
14.71
13.71
13.33
13.58
14.29
15.20
15.95
16.18
15.61
14.10
11.63
8.37
4.64
0.84
-2.64
-5.50
-7.65
-9.15
-10.15
-10.84
-11.33
-11.63
-11.76
-11.81
-12.03
-12.74
-14.25
-16.66
-19.79
-23.23
-26.44
-29.00
-30.58
-31.05
-30.34
-28.47
-25.51
-21.65
-17.24
-12.73
-8.55
-4.92
-1.84
0.87
3.50
6.21
8.99
11.60
13.70
14.98
15.36
14.95
13.99
12.82
11.71
10.86
10.42
10.54
11.34
12.84
14.95
17.34
19.60
21.32
22.35
22.73
22.76
22.63
22.39
21.91
20.94
19.36
17.21
14.71
12.19
9.90
7.90
6.06
4.21
2.19
-0.06
-2.50
-5.04
-7.65
-10.36
-13.17
-16.05
-18.79
-21.07
-22.45
-22.59
-21.37
-18.94
-15.77
-12.39
-9.33
-6.83
-4.97
-3.55
-2.27
-0.88
0.92
3.21
6.00
9.01
11.82
13.77
14.27
12.88
9.50
4.48
-1.56
-7.79
-13.41
-17.76
-20.41
-21.13
-19.92
-16.91
-12.41
-6.92
-1.10
4.18
7.98
9.50
8.27
4.38
-1.52
-8.35
-14.94
-20.30
-23.87
-25.58
-25.67
-24.60
-22.87
-21.08
-19.69
-19.06
-19.25
-19.94
-20.56
-20.43
-19.06
-16.26
-12.23
-7.38
-2.26
2.75
7.43
11.68
15.43
18.59
21.07
22.76
23.71
23.99
23.75
23.17
22.42
21.65
20.96
20.40
19.96
19.64
19.42
19.31
19.29
19.26
19.07
18.48
17.30
15.41
12.91
10.04
7.04
4.09
1.25
-1.44
-3.94
-6.12
-7.85
-9.17
-10.28
-11.46
-12.92
-14.77
-16.84
-18.90
-20.77
-22.40
-23.88
-25.26
-26.37
-26.77
-25.94
-23.40
-19.03
-13.09
-6.13
1.19
8.38
15.08
21.15
26.42
30.75
33.99
36.05
37.01
37.16
36.85
36.31
35.57
34.38
32.49
29.72
26.21
22.41
18.90
16.23
14.63
14.04
14.15
14.64
15.24
15.76
16.10
16.13
15.65
14.52
12.65
10.13
7.16
3.98
0.83
-2.11
-4.74
-7.12
-9.33
-11.48
-13.68
-16.00
-18.54
-21.27
-24.06
-26.65
-28.58
-29.37
-28.59
-25.99
-21.69
-16.08
-9.69
-3.14
3.03
8.45
12.83
15.99
17.84
18.42
17.95
16.80
15.44
14.29
13.63
13.50
13.79
14.24
14.67
14.97
15.16
15.25
15.24
15.06
14.59
13.67
12.19
10.10
7.44
4.31
0.92
-2.52
-5.77
-8.73
-11.42
-13.94
-16.37
-18.79
-21.27
-23.82
-26.46
-29.11
-31.60
-33.63
-34.77
-34.49
-32.32
-28.05
-21.79
-14.10
-5.83
2.13
9.03
14.56
18.80
22.11
24.83
27.11
28.82
29.76
29.89
29.37
28.61
28.00
27.76
27.89
28.25
28.69
29.17
29.73
30.42
31.24
32.14
33.10
34.11
35.18
36.23
37.10
37.57
37.51
36.99
36.32
35.88
35.92
36.41
37.09
37.66
38.07
38.66
40.10
43.02
47.80
54.30
62.05
70.42
78.80
86.44
92.13
94.00
89.78
77.40
55.75
25.16
-12.70
-55.21
-99.51
-142.68
-181.74
-213.63
-235.24
-244.12
-239.43
-222.81
-198.32
-171.73
-148.96
-134.55
-130.64
-136.69
-150.14
-167.33
-184.47
-197.96
-204.61
-201.66
-187.22
-160.93
-124.34
-80.60
-33.43
14.20
60.82
105.88
148.54
186.10
213.74
225.65
217.08
186.13
134.27
65.75
-13.54
-96.53
-175.07
-240.17
-283.02
-297.31
-281.43
-239.55
-180.62
-115.40
-53.13
0.72
44.93
81.40
113.22
142.81
170.69
195.03
212.12
217.60
208.07
182.26
141.42
88.54
27.64
-36.69
-98.90
-152.25
-189.26
-203.52
-192.18
-157.66
-107.59
-52.43
-2.19
36.39
60.81
71.99
72.69
66.18
55.53
43.66
33.36
26.92
25.79
30.30
39.88
53.89
72.19
95.24
123.54
156.61
192.24
226.68
255.37
274.34
281.46
276.99
263.44
244.72
224.81
206.30
189.59
172.80
152.77
126.82
94.34
57.41
20.06
-13.34
-39.89
-58.95
-71.79
-80.42
-86.40
-90.44
-92.65
-93.28
-93.13
-93.48
-95.50
-99.63
-105.20
-110.41
-112.62
-108.94
-96.95
-75.49
-45.42
-9.74
26.92
59.57
84.32
99.41
105.23
103.47
96.01
84.05
68.03
48.17
25.20
0.77
-22.86
-43.70
-60.85
-74.88
-87.47
-100.56
-115.38
-131.95
-149.04
-164.73
-177.25
-185.49
-188.85
-186.66
-177.91
-161.49
-136.65
-103.38
-63.02
-18.53
25.94
65.85
97.37
118.04
126.57
123.38
110.96
93.21
74.26
57.38
44.71
37.38
35.76
38.73
44.86
53.69
66.08
83.38
106.69
135.95
169.03
201.00
223.41
227.02
205.89
159.71
93.56
16.20
-62.44
-133.79
-184.45
-205.30
-198.28
-173.44
-140.98
-107.28
-75.54
-47.38
-23.95
-5.96
5.55
10.54
11.10
10.82
12.78
18.15
26.58
36.71
46.87
54.88
59.13
59.79
58.78
57.47
56.00
54.18
51.62
48.09
43.18
36.82
29.91
24.05
20.45
18.76
18.26
17.91
16.52
12.66
5.07
-6.97
-23.50
-39.21
-52.91
-64.32
-73.55
-80.59
-85.45
-88.21
-88.87
-87.12
-83.25
-78.37
-73.08
-67.75
-62.60
-57.75
-53.31
-49.35
-45.54
-42.11
-39.77
-38.63
-38.45
-38.80
-39.09
-38.60
-38.96
-37.91
-34.37
-28.37
-19.95
-9.33
2.89
15.74
28.04
38.48
46.25
50.38
49.88
44.90
36.30
25.37
13.60
2.42
-6.88
-12.98
-15.14
-13.39
-7.48
2.81
17.45
35.89
57.02
79.33
101.25
124.54
148.28
171.23
191.83
208.19
218.12
219.23
209.56
188.15
155.36
112.54
62.57
9.02
-44.81
-96.53
-144.95
-189.95
-232.07
-272.43
-312.78
-354.27
-396.89
-438.77
-476.02
-503.65
-517.22
-514.70
-497.47
-469.95
-437.45
-404.21
-372.23
-341.47
-311.13
-281.15
-252.68
-227.73
-208.03
-193.86
-183.86
-175.87
-167.99
-159.39
-150.42
-142.00
-134.68
-128.11
-120.97
-111.67
-99.23
-83.77
-66.68
-49.88
-35.07
-23.06
-13.61
-5.72
1.70
9.39
17.48
25.58
33.22
40.02
46.07
51.67
57.33
63.32
69.74
76.39
82.92
89.09
94.83
100.35
105.99
112.09
118.82
126.12
133.80
141.64
149.62
157.88
166.81
176.74
187.80
199.63
211.45
222.07
230.19
234.69
234.92
230.68
222.24
210.17
195.14
177.84
159.11
139.93
121.54
105.29
92.48
84.24
81.49
85.01
95.44
112.75
135.63
161.06
184.53
201.03
206.62
199.75
181.72
155.95
126.56
96.92
68.82
42.48
17.14
-8.25
-34.63
-62.64
-92.41
-123.38
-154.03
-181.80
-203.62
-216.75
-219.76
-213.32
-200.41
-185.62
-173.89
-168.82
-171.44
-179.74
-189.50
-195.88
-195.24
-186.32
-170.31
-150.04
-128.63
-108.47
-90.81
-76.03
-64.08
-54.79
-47.86
-42.65
-38.21
-33.39
-27.36
-19.97
-11.89
-4.31
1.57
5.06
6.25
5.96
5.32
5.27
6.24
8.06
10.31
12.67
15.24
18.63
23.67
31.01
40.76
52.46
65.21
78.06
90.46
102.34
114.21
126.97
141.71
159.42
180.50
204.20
228.18
248.81
262.00
264.66
255.95
237.78
214.16
189.77
168.45
152.21
141.28
134.74
131.48
130.57
131.33
132.98
134.49
134.71
132.80
128.50
122.28
115.21
108.44
102.80
98.50
95.16
92.00
88.36
83.91
78.88
73.86
69.54
66.25
63.85
61.76
59.21
55.66
50.96
45.44
39.68
34.21
29.28
24.79
20.39
15.73
10.66
5.26
-0.24
-5.57
-10.64
-15.56
-20.52
-25.77
-31.45
-37.63
-44.32
-51.48
-58.92
-66.22
-72.75
-77.73
-80.50
-80.77
-78.65
-74.65
-69.47
-63.84
-58.45
-53.91
-50.76
-49.44
-50.16
-52.82
-57.03
-62.21
-67.86
-73.67
-79.45
-85.06
-90.41
-95.39
-100.04
-104.54
-108.97
-112.99
-115.45
-114.49
-107.99
-94.52
-74.11
-48.57
-21.13
4.49
25.23
39.33
46.51
47.62
43.97
36.92
27.59
17.02
6.27
-3.44
-10.82
-14.77
-14.49
-9.59
0.03
14.44
33.50
56.74
82.84
109.48
133.63
152.43
164.08
168.53
167.33
162.84
157.21
151.68
146.42
141.05
135.14
128.63
121.68
114.48
106.95
98.90
90.25
81.34
72.89
65.75
60.56
57.44
55.96
55.29
54.60
53.26
51.02
47.95
44.34
40.51
36.74
33.19
29.87
26.73
23.65
20.58
17.52
14.56
11.79
9.23
6.84
4.48
1.99
-0.76
-3.89
-7.46
-11.50
-15.92
-20.50
-24.85
-28.37
-30.43
-30.47
-28.21
-23.71
-17.42
-10.06
-2.38
5.00
11.85
18.26
24.61
31.28
38.42
45.74
52.61
58.20
61.93
63.80
64.47
65.09
66.85
70.43
75.66
81.55
86.75
90.15
91.36
90.98
90.30
90.89
93.92
99.71
107.44
115.18
120.16
119.46
110.78
93.20
67.64
36.55
3.17
-29.66
-60.44
-89.64
-119.26
-151.75
-188.31
-227.58
-265.32
-295.53
-312.58
-313.35
-298.36
-271.40
-237.64
-201.41
-164.57
-126.08
-84.04
-37.93
9.96
54.59
89.69
109.63
110.79
92.07
55.18
3.94
-56.30
-118.88
-176.18
-220.58
-245.93
-249.32
-231.95
-197.56
-152.02
-101.80
-52.27
-6.64
34.12
70.43
102.52
129.52
152.47
171.69
186.79
197.24
203.58
208.21
214.62
225.71
242.46
269.98
310.93
363.64
421.95
477.83
524.91
560.02
582.75
594.25
606.27
629.53
668.58
719.95
775.33
826.90
870.04
903.09
926.26
953.61
998.34
1064.99
1146.45
1228.02
1295.10
1338.41
1355.28
1265.18
1026.22
649.16
198.37
-242.81
-614.29
-894.27
-1089.07
-1217.33
-1293.54
-1328.53
-1326.29
-1291.85
-1235.22
-1168.56
-1100.45
-1034.24
-968.13
-902.44
-832.66
-757.12
-678.99
-604.40
-539.19
-485.99
-445.34
-417.62
-404.34
-400.49
-397.37
-388.25
-369.69
-342.48
-310.12
-278.56
-254.85
-245.34
-250.31
-264.50
-280.87
-292.85
-296.61
-287.82
-266.41
-236.02
-203.40
-175.21
-155.67
-146.95
-145.97
-148.63
-149.44
-144.20
-131.38
-112.24
-92.66
-72.79
-51.42
-27.85
-3.12
20.79
40.30
52.25
55.08
48.83
35.41
17.51
-0.57
-13.05
-13.55
1.98
33.27
74.56
115.64
145.55
155.64
143.14
111.91
70.88
30.23
-1.17
-18.39
-21.23
-13.11
0.54
14.78
26.80
36.43
45.26
56.41
72.30
92.49
113.21
128.68
133.83
126.82
109.96
88.59
70.48
62.68
68.50
87.02
114.79
148.43
186.26
227.97
263.02
280.67
274.35
244.66
198.17
143.61
88.71
38.64
-4.60
-40.28
-71.46
-100.03
-126.47
-150.69
-172.61
-192.42
-210.69
-223.34
-227.94
-222.30
-204.90
-176.66
-141.53
-105.58
-74.70
-52.39
-39.55
-32.62
-25.99
-14.14
5.82
33.14
64.12
94.12
119.68
139.80
154.23
164.23
171.73
177.95
182.84
185.53
184.94
180.18
170.46
154.71
132.13
102.67
67.23
27.56
-14.16
-55.93
-96.54
-136.07
-175.96
-218.13
-263.62
-311.13
-356.40
-393.00
-414.53
-417.45
-402.78
-375.74
-343.20
-310.44
-279.15
-247.77
-213.70
-175.91
-136.14
-98.19
-65.66
-39.99
-19.89
-2.37
15.45
34.97
56.05
77.66
99.18
120.96
143.89
168.26
192.93
215.22
231.92
240.86
241.90
236.99
229.01
220.21
211.24
201.23
188.67
172.54
152.80
130.11
105.37
79.20
52.06
24.64
-1.80
-25.57
-45.01
-59.08
-67.90
-72.57
-74.82
-76.40
-78.43
-81.27
-84.64
-88.03
-91.19
-94.43
-98.50
-104.18
-111.71
-120.46
-128.85
-134.77
-136.09
-131.18
-119.31
-100.78
-76.89
-49.79
-22.14
3.36
24.49
39.94
49.51
53.89
54.39
52.39
49.11
45.46
42.02
39.20
37.24
36.23
36.10
36.67
37.66
38.74
39.56
39.89
39.67
39.07
38.42
38.04
38.01
38.13
37.89
36.82
34.65
31.41
27.41
22.86
17.80
12.07
5.62
-1.36
-8.20
-13.96
-17.75
-19.04
-17.84
-14.60
-10.07
-4.97
0.05
4.57
8.27
11.00
12.72
13.55
13.71
13.47
13.05
12.55
11.90
10.91
9.37
7.21
4.57
1.81
-0.67
-2.49
-3.48
-3.71
-3.43
-2.97
-2.59
-2.47
-2.68
-3.20
-4.00
-5.00
-6.13
-7.30
-8.44
-9.51
-10.55
-11.61
-12.79
-14.05
-15.21
-15.90
-15.69
-14.22
-11.44
-7.65
-3.41
0.63
4.02
6.66
8.74
10.62
12.54
14.54
16.38
17.74
18.33
18.09
17.21
16.00
14.82
13.87
13.19
12.73
12.36
11.95
11.44
10.81
10.10
9.36
8.71
8.18
7.79
7.46
7.06
6.49
5.72
4.77
3.72
2.60
1.39
0.04
-1.52
-3.29
-5.28
-7.44
-9.71
-11.96
-13.95
-15.32
-15.74
-15.05
-13.28
-10.75
-7.86
-5.00
-2.47
-0.45
1.00
1.89
2.36
2.74
3.39
4.62
6.45
8.53
10.27
11.00
10.37
8.40
5.58
2.65
0.35
-0.78
-0.56
0.88
3.15
5.77
8.27
10.23
11.34
11.46
10.57
8.80
6.44
3.86
1.40
-0.70
-2.36
-3.62
-4.61
-5.47
-6.34
-7.26
-8.18
-8.93
-9.21
-8.68
-7.09
-4.40
-0.85
3.10
6.87
10.01
12.22
13.45
13.79
13.45
12.72
11.89
11.22
10.82
10.58
10.11
8.97
6.78
3.59
-0.10
-3.39
-5.35
-5.35
-3.36
0.02
3.79
6.88
8.48
8.24
6.17
2.63
-1.91
-6.90
-11.78
-15.98
-18.94
-20.28
-19.84
-17.89
-15.06
-12.20
-10.08
-9.16
-9.35
-10.09
-10.61
-10.22
-8.58
-5.79
-2.27
1.51
5.20
8.67
11.84
14.58
16.59
17.49
17.01
15.22
12.59
9.83
7.66
6.55
6.58
7.48
8.82
10.14
11.14
11.70
11.85
11.66
11.25
10.65
9.97
9.29
8.71
8.30
8.05
7.88
7.61
7.11
6.27
5.13
3.79
2.36
0.96
-0.30
-1.26
-1.76
-1.61
-0.68
1.06
3.57
6.74
10.45
14.63
19.15
23.90
28.64
33.08
36.87
39.76
41.65
42.66
43.10
43.32
43.60
44.08
44.78
45.72
47.11
49.28
52.65
57.42
63.48
70.38
77.49
84.24
90.29
95.68
100.68
105.61
110.74
115.98
120.79
124.05
124.17
119.40
108.27
90.06
65.05
34.58
0.97
-32.80
-63.62
-89.14
-108.61
-123.24
-135.71
-148.87
-164.08
-180.37
-194.62
-203.00
-202.74
-193.27
-176.25
-154.49
-130.71
-106.89
-84.42
-64.73
-49.54
-40.42
-37.84
-40.45
-45.19
-48.30
-46.67
-38.95
-25.64
-8.30
11.56
33.27
56.99
82.94
110.51
137.87
162.43
181.79
194.83
202.04
204.99
205.33
203.70
199.37
190.63
175.76
154.00
126.14
94.38
61.61
30.58
3.10
-20.37
-40.81
-60.45
-82.18
-108.71
-141.32
-178.68
-216.42
-247.95
-266.45
